time,value
0.0,-0.01238670971952707
4.0,-0.029289282625217836
8.0,-0.04966327767272705
12.0,0.03640263864622581
16.0,-0.006818643001652438
20.0,-0.02531513545128042
24.0,0.0022802105439311353
28.0,0.02352851022201108
32.0,0.024703722435361595
36.0,0.07040618092498846
40.0,0.015019524566898361
44.0,0.0537263707528639
48.0,-0.08062840939812393
52.0,0.02015061279574279
56.0,-0.0041440999804790045
60.0,0.003739548493195917
64.0,0.030516554637631643
68.0,-0.0024512225274458516
72.0,-0.02650187079776127
76.0,-0.04428998561098432
80.0,0.05668836255886922
84.0,-0.04436142365440129
88.0,0.03278811144058457
92.0,0.03582291831817628
96.0,0.10924793921465253
100.0,-0.029936583556946034
104.0,0.04677195359421562
108.0,0.08787158278194557
112.0,-0.05725950014105823
116.0,0.09570737747774416
120.0,-0.02762288420926078
124.0,-0.013080509260371773
128.0,0.017183300414214706
132.0,-0.06243065471547651
136.0,0.051983657364266744
140.0,0.004954881904408532
144.0,-0.013706056019892516
148.0,-0.021721488049900223
152.0,0.0209922211739699
156.0,-0.040124160055033525
160.0,-0.07160126650886353
164.0,0.07562997001621213
168.0,0.05885260875481525
172.0,-0.03004752380931989
176.0,-0.015200477398586772
180.0,-0.028106820068937544
184.0,0.008807687435136342
188.0,-0.07056699418785081
192.0,-0.06252471001161049
196.0,0.014420969720666508
200.0,-0.0119054570864278
204.0,0.025671575707707357
208.0,0.03838698673676842
212.0,0.014190795114002784
216.0,0.02616250057691193
220.0,-0.035517630371629465
224.0,0.027425526772302422
228.0,0.026159158247021225
232.0,-0.0242523405794275
236.0,0.004071719427837069
240.0,0.0008117941011860732
244.0,0.033603902585122324
248.0,-7.67158417457549e-05
252.0,-0.008476216278401097
256.0,0.010172918616865693
260.0,-0.05677847773080613
264.0,-0.016944870602894357
268.0,-0.0725236174917434
272.0,-0.011481331709348236
276.0,0.03990257837457942
280.0,-0.06748582227775685
284.0,0.12616370299302823
288.0,-0.0006808398968915698
292.0,-0.008862244751708727
296.0,-0.013028370207513082
300.0,0.025087949787084923
304.0,-0.019544458320067782
308.0,-0.04926313505189611
312.0,-0.031462058456066026
316.0,-0.07493226534464097
320.0,0.02414693170760583
324.0,0.13125897052538668
328.0,-0.055159945900046164
332.0,0.04192960345548009
336.0,-0.10158465872533283
340.0,0.12871946659911657
344.0,0.05112298904251331
348.0,-0.0017390496862833222
352.0,-0.02227050648530686
356.0,-0.0028859827669323393
360.0,-0.05810681447206966
364.0,0.04160338255717486
368.0,-0.012550102036170508
372.0,-0.018603102968940854
376.0,-0.012170745421861775
380.0,0.013483552553790948
384.0,0.08455051088074769
388.0,-0.022134439584479228
392.0,0.02644534037965208
396.0,-0.019248231925664983
400.0,0.1050384511962722
404.0,-0.004926847753816252
408.0,-0.0036490145768752202
412.0,-0.057368410332897614
416.0,-0.011297525817049963
420.0,0.01202181456414008
424.0,0.06131190771657679
428.0,-0.025606433646215572
432.0,0.03548079685204158
436.0,0.02081393618405867
440.0,-0.019410420083928084
444.0,-0.03736983073341964
448.0,0.041193367795873605
452.0,0.07063406956377404
456.0,-0.049639878211578836
460.0,-0.034153732560075506
464.0,0.026110074248913817
468.0,0.06197165515793063
472.0,-0.001227681309067464
476.0,0.05264117189231071
480.0,0.026873575067173274
484.0,0.0010270387887316354
488.0,0.07973839832659003
492.0,-0.04694130124801386
496.0,-0.030287319403869986
500.0,-0.03559252258333551
504.0,-0.055893362583754914
508.0,0.022077791753823548
512.0,-0.04446633075392656
516.0,-0.08685805807101042
520.0,0.07197544088649957
524.0,-0.05598655500251344
528.0,0.009465690408772867
532.0,-0.005096930600025663
536.0,0.0046793003184279645
540.0,0.01002278351797619
544.0,0.05594605344093241
548.0,0.03028104277931647
552.0,-0.021162074865663964
556.0,-0.033038754055910335
560.0,-0.016800623408376156
564.0,-0.003869288318272903
568.0,-0.031621101944065526
572.0,-0.019820882256958983
576.0,0.003255564176224117
580.0,0.04335428789637186
584.0,0.09707375549489419
588.0,-0.06824424035540164
592.0,0.010649477144440443
596.0,-0.040409123128871516
600.0,0.03168139440378979
604.0,-0.004055606301052247
608.0,0.04962276431269686
612.0,-0.001627613573747828
616.0,0.04936595865097044
620.0,0.015228375145537884
624.0,-0.056096171288262386
628.0,-0.016666786282414525
632.0,-0.15588754628196877
636.0,-0.2744585112151272
640.0,0.087672429198631
644.0,0.18597244782072503
648.0,0.4232002167362522
652.0,0.5666023134795908
656.0,0.835234048341238
660.0,1.030952196492649
664.0,0.9132809417460991
668.0,0.5920842044339508
672.0,0.4551113168390205
676.0,0.21557458671626864
680.0,-0.05328397711301101
684.0,-0.14781108432246692
688.0,-0.1420759899597142
692.0,-0.2791856490358635
696.0,-0.34454698550871565
700.0,-0.17969677240370094
704.0,-0.0979260399083246
708.0,-0.14652788748425705
712.0,-0.019075248515982485
716.0,0.04501124582955809
720.0,-0.0438533580290883
724.0,-0.025117095687457826
728.0,0.053499370692485115
732.0,0.004866540834145073
736.0,-0.04665361275132496
740.0,0.0013897795065394391
744.0,-0.025438530141405204
748.0,0.07740213016580288
752.0,-0.09577171858332871
756.0,-0.006594418083508209
760.0,0.04883214032262178
764.0,0.0059877544198126435
768.0,0.019542824847271257
772.0,-0.02731825330473532
776.0,-0.016287302503940646
780.0,0.07663834258703234
784.0,-0.07960715073412039
788.0,0.02928320909085405
792.0,0.03638695124095338
796.0,0.018342739258979748
800.0,0.06508748659243511
804.0,-0.06346903236656215
808.0,0.010263817632779426
812.0,0.027255639068515965
816.0,0.030425409914506853
820.0,0.016833205729108652
824.0,-0.028842485576790915
828.0,0.0634302741830152
832.0,0.09514276001181739
836.0,0.09884874822479203
840.0,0.20277676307066705
844.0,0.20195184589003184
848.0,0.19748126119945766
852.0,0.21409048462862862
856.0,0.21393676729573838
860.0,0.21750416393544283
864.0,0.13346689397890035
868.0,0.3215982575263166
872.0,0.2765654451793918
876.0,0.26174561223891535
880.0,0.3016325578099995
884.0,0.3055372061145969
888.0,0.35071315240172507
892.0,0.31369524092341716
896.0,0.35785146507816
900.0,0.21308914338941812
904.0,0.29638843332238873
908.0,0.2411285132119372
912.0,0.18295600729011535
916.0,0.1800237948795713
920.0,0.25167256385154463
924.0,0.08330960284392883
928.0,0.11750248424599465
932.0,0.05403665710843256
936.0,0.11981570474991056
940.0,0.0013350293953411651
944.0,-0.014117533505429361
948.0,0.008478041613403623
952.0,0.02139182757282652
956.0,-0.03612974057058668
960.0,-0.05056149692788484
964.0,-0.03076652864390894
968.0,-0.030283312133192266
972.0,-0.022318794069701525
976.0,-0.05421232894556624
980.0,-0.09296068470905898
984.0,0.023781061712166457
988.0,-0.02611669678368027
992.0,-0.02467226979240378
996.0,0.05805098286039532
1000.0,0.03973428935297192
1004.0,0.024633166587771448
1008.0,0.012833342960053375
1012.0,-0.09309921285771428
1016.0,-0.02434916797782657
1020.0,-0.016059461118193154
1024.0,0.03954171725168786
1028.0,-0.12034953210944051
1032.0,-0.028705031153239552
1036.0,0.06167000657068135
1040.0,-0.04662007709015798
1044.0,0.003641926831485516
1048.0,-0.06129794701696926
1052.0,0.10799723675425627
1056.0,-0.03416040763619299
1060.0,0.03085771942414703
1064.0,0.009428708540987873
1068.0,0.05585573024241067
1072.0,-0.009262553032715828
1076.0,-0.009379329588172503
1080.0,-0.07072753250751533
1084.0,-0.09961898723063159
1088.0,-0.11594292082299651
1092.0,0.049185002655145305
1096.0,-0.057881070706659536
1100.0,-0.006923131808256675
1104.0,-0.006779553515796254
1108.0,0.022263993877687804
1112.0,0.04225487152640924
1116.0,0.015631545768371658
1120.0,0.01905261984684066
1124.0,0.08952277921852901
1128.0,-0.07641610983418998
1132.0,-0.06648949035309289
1136.0,0.028396310726060615
1140.0,-0.02769682565790765
1144.0,-0.04452587979698088
1148.0,-0.011162250021397513
1152.0,0.0562645954377379
1156.0,-0.09275277294954803
1160.0,-0.10135728627306682
1164.0,-0.0471489111271253
1168.0,-0.1757452032588073
1172.0,-0.03512231824045774
1176.0,0.2077911389969287
1180.0,0.45675985687914544
1184.0,0.5676804876419205
1188.0,0.8127031110259527
1192.0,0.9967381608297271
1196.0,0.7378535682408482
1200.0,0.5205667015660376
1204.0,0.3781749731432588
1208.0,0.20075561027101235
1212.0,0.03953016623734897
1216.0,-0.05476372024617347
1220.0,-0.2272357552717453
1224.0,-0.22804142175329364
1228.0,-0.3107710189888427
1232.0,-0.1816716599035551
1236.0,-0.15197898934523846
1240.0,-0.098567981239766
1244.0,-0.03490722100703428
1248.0,0.019152453634298634
1252.0,-0.0027882821764131666
1256.0,0.03252267832871761
1260.0,-0.06707571237536739
1264.0,0.06806086862012234
1268.0,0.06083216592576675
1272.0,0.11554894101279443
1276.0,0.038505605721238595
1280.0,0.06801391812771711
1284.0,0.06005821423819009
1288.0,-0.0052271654168539496
1292.0,0.0007532417504207467
1296.0,0.02453296816202029
1300.0,-0.04219707288698351
1304.0,-0.017879407333577728
1308.0,-0.04394480885709921
1312.0,0.023328579351567697
1316.0,0.009200355084944035
1320.0,0.10206843750843811
1324.0,-0.06905051079015039
1328.0,0.008897089865686008
1332.0,-0.0039016548140576993
1336.0,0.06323842057806454
1340.0,0.11047938647066283
1344.0,0.005633555680944659
1348.0,-0.03352606820118094
1352.0,0.02314897101234293
1356.0,0.04966865152441263
1360.0,0.08564737958030161
1364.0,0.140134838030573
1368.0,0.06362785704413149
1372.0,0.20147073509719393
1376.0,0.10968583786810597
1380.0,0.1734777832215716
1384.0,0.24328818668644553
1388.0,0.18673989741639965
1392.0,0.2465569177057208
1396.0,0.19357485772017147
1400.0,0.2823697791059877
1404.0,0.2930917164281059
1408.0,0.290544776780113
1412.0,0.379913364635183
1416.0,0.3761137378797602
1420.0,0.21163603678242493
1424.0,0.22904341714596463
1428.0,0.29212564702870647
1432.0,0.2662709682037251
1436.0,0.19995497068998294
1440.0,0.1683823020504676
1444.0,0.16309954589250014
1448.0,0.1333608647454496
1452.0,0.11576704151234413
1456.0,0.09766558505939801
1460.0,0.06168274925009917
1464.0,0.12791427985935228
1468.0,0.003092346083325887
1472.0,-0.04811311069466494
1476.0,0.006586482481128106
1480.0,-0.06594569567309609
1484.0,-0.043312282974414945
1488.0,-0.029048072843450082
1492.0,0.01911055257313907
1496.0,0.02318802911520878
1500.0,0.031330484021194115
1504.0,-0.10027860215037634
1508.0,-0.0796314089518632
1512.0,0.02878401540913817
1516.0,-0.0011116130154059062
1520.0,0.047712289458375565
1524.0,0.044774680675127174
1528.0,-0.0019038381418419476
1532.0,-0.044144796569323325
1536.0,-0.027862141335615043
1540.0,0.03757373729311714
1544.0,-0.0727328024663712
1548.0,-0.014227491257230033
1552.0,0.06391910542343333
1556.0,-0.047602589936794865
1560.0,-0.030120398464726417
1564.0,-0.024267756877664904
1568.0,0.040021130044493924
1572.0,-0.06290027768623206
1576.0,-0.003721951246932036
1580.0,0.10477171326089414
1584.0,0.043257545601128725
1588.0,-0.029521903079544432
1592.0,0.012190759200681935
1596.0,-0.0972621718653214
1600.0,-0.06508237952902633
1604.0,0.05542627742753389
1608.0,0.051666511011828224
1612.0,-0.04404046210441967
1616.0,0.0362526598177566
1620.0,-0.0645073632715373
1624.0,0.04336097861122786
1628.0,-0.013008520350559681
1632.0,-0.03954417021470082
1636.0,-0.11199204895157731
1640.0,-0.07753718355751194
1644.0,-0.029524412095844717
1648.0,-0.07889646052987286
1652.0,-0.11522350183876279
1656.0,-0.03423556886470038
1660.0,0.054371878913546216
1664.0,-0.00014440320689566223
1668.0,-0.03310205817976228
1672.0,-0.013358934632101652
1676.0,-0.008394086436542415
1680.0,0.054007402824412666
1684.0,0.028384061202202094
1688.0,-0.0856633729075637
1692.0,-0.02202977044249259
1696.0,-0.16473591921518094
1700.0,-0.2043200981514688
1704.0,-0.03794106955279873
1708.0,0.19303243859593242
1712.0,0.39684847218279623
1716.0,0.5106512969042977
1720.0,0.8226081680659327
1724.0,0.9375833197512704
1728.0,0.7574249842264206
1732.0,0.5274894910366025
1736.0,0.4336576000531228
1740.0,0.2339190936684946
1744.0,-0.03474734484424601
1748.0,-0.017208163471322396
1752.0,-0.17300761989975746
1756.0,-0.2730868037238279
1760.0,-0.29576227264312094
1764.0,-0.2977435619090347
1768.0,-0.17460984029293647
1772.0,-0.06909769129085211
1776.0,0.04487259195962729
1780.0,-0.005285705501762346
1784.0,-0.011848364508369428
1788.0,-0.005314585363698755
1792.0,0.05368414529070801
1796.0,-0.01864582872724121
1800.0,-0.01050089657293976
1804.0,-0.033898890358138055
1808.0,-0.03478305502787518
1812.0,-0.05079186876439606
1816.0,-0.07559192762757337
1820.0,0.039235024517465945
1824.0,-0.0590174078071091
1828.0,0.07056981255453713
1832.0,0.0769171524090832
1836.0,0.00841877449746061
1840.0,-0.05812599044413178
1844.0,-0.03022668574806588
1848.0,0.046205137955065444
1852.0,-0.15217169835613792
1856.0,0.08997286141243012
1860.0,0.011616574150523577
1864.0,-0.009547537399136885
1868.0,0.0688883906025737
1872.0,0.005271189024506486
1876.0,-0.002100531016551802
1880.0,-0.04439677907780644
1884.0,-0.00344947181279502
1888.0,0.0856835574536369
1892.0,0.04568353495690057
1896.0,0.10103523060324444
1900.0,0.092354740914154
1904.0,0.20872623787434252
1908.0,0.2137384539685179
1912.0,0.20756250647615937
1916.0,0.17622258166490615
1920.0,0.34815328587396643
1924.0,0.18113038368850604
1928.0,0.36576121953055507
1932.0,0.31293645572008705
1936.0,0.27007159084114263
1940.0,0.21884101257076738
1944.0,0.2830378599186216
1948.0,0.2837753523978356
1952.0,0.2613937895247543
1956.0,0.3529463417973253
1960.0,0.2525990898874254
1964.0,0.1806229786711666
1968.0,0.23556319245783436
1972.0,0.20053981840336163
1976.0,0.24795609138162156
1980.0,0.21540319639802166
1984.0,0.13520695403839064
1988.0,0.20343912651732682
1992.0,0.08876262326406927
1996.0,0.02261616564317554
2000.0,0.02506632461345555
2004.0,0.03824711953671165
2008.0,-0.02512292528479026
2012.0,-0.0814698671502584
2016.0,0.00472254560489848
2020.0,-0.05000357957362783
2024.0,-0.0012041986389890616
2028.0,0.049129871781688386
2032.0,-0.05337646425735065
2036.0,0.04002365512477101
2040.0,0.01920457529578172
2044.0,-0.03434008099605058
2048.0,0.02749436262493109
2052.0,-0.03501995825061981
2056.0,-0.04129040918895488
2060.0,-0.034020036996837706
2064.0,-0.010995972840574974
2068.0,-0.035833299848071765
2072.0,-0.09583663865387028
2076.0,-0.09728612410646267
2080.0,0.027941632137785496
2084.0,0.025511914807612814
2088.0,-0.06707168485163799
2092.0,0.023654319388597356
2096.0,-0.018132722404478822
2100.0,0.04774580194850031
2104.0,-0.08529498779012964
2108.0,0.07206914192098073
2112.0,0.03796359467796038
2116.0,-0.06013655918477528
2120.0,-0.03323439383123913
2124.0,-0.04732772769423728
2128.0,-0.06489267906423292
2132.0,0.0016800703658876
2136.0,0.022305338035947905
2140.0,0.02757597108619768
2144.0,-0.02961104274992403
2148.0,0.08042561392836649
2152.0,-0.03158177198858952
2156.0,-0.06687532622489617
2160.0,-0.03669094566372837
2164.0,0.13737124368063522
2168.0,0.020229245965152215
2172.0,-0.039420190143538605
2176.0,-0.02794746029010356
2180.0,-0.01164656554689244
2184.0,0.013591754117499744
2188.0,0.039367437684032405
2192.0,-0.011886010907200031
2196.0,0.023051853641336457
2200.0,-0.0634992660199601
2204.0,-0.039376747379375604
2208.0,-0.030719221039155656
2212.0,-0.06586658779857449
2216.0,0.0191789974986957
2220.0,0.0024340019644733153
2224.0,0.0010217885047272275
2228.0,0.07465998814005141
2232.0,-0.025728624492511506
2236.0,-0.033465582899656385
2240.0,0.03972991358107464
2244.0,0.04002907833867553
2248.0,-0.03404288811920974
2252.0,0.029274975718960917
2256.0,-0.01036924178655268
2260.0,-0.04286560796768776
2264.0,0.0036783722630913743
2268.0,-0.053653094660066805
2272.0,0.03696812366336332
2276.0,-0.04616290674756083
2280.0,0.014128220050230962
2284.0,0.09713451770290228
2288.0,0.03147763372694047
2292.0,-0.07162086792103148
2296.0,0.06570465707431859
2300.0,0.09121826837997044
2304.0,0.060802402984939156
2308.0,0.015432694897651223
2312.0,0.0033337422655139192
2316.0,-0.013590967247891404
2320.0,0.029390743616605805
2324.0,0.02435463899789853
2328.0,-0.0558409721014619
2332.0,0.046197488447523416
2336.0,-0.03831874305874031
2340.0,-0.03498345029214133
2344.0,-0.08755601252707167
2348.0,-0.03009356181718033
2352.0,0.12078083443029744
2356.0,-0.04014558854898956
2360.0,0.005184179631608115
2364.0,-0.023162168962006756
2368.0,0.024353289951730236
2372.0,-0.08457685592658759
2376.0,0.03246118400289002
2380.0,-0.016924573063061683
2384.0,0.033090992062673893
2388.0,-0.13634314207831766
2392.0,-0.04677887785049581
2396.0,-0.03564004812312425
2400.0,-0.03654161727364374
2404.0,-0.004480176953194268
2408.0,-0.08589876671878
2412.0,-0.0574613679441722
2416.0,0.0980588675324894
2420.0,-0.05365170661720681
2424.0,-0.009670434573430427
2428.0,-0.016022218068982987
2432.0,-0.02841443510680112
2436.0,-0.0618934459581026
2440.0,-0.049480851242230325
2444.0,-0.09181065699621757
2448.0,-0.15094570085265419
2452.0,-0.11421541088559979
2456.0,0.20714519276613752
2460.0,0.348974070871223
2464.0,0.6186418531102452
2468.0,0.6991932311800781
2472.0,0.9962513254648434
2476.0,0.8062063917234058
2480.0,0.5758586771535141
2484.0,0.4103103074803614
2488.0,0.22190266210913
2492.0,0.03651315911525614
2496.0,-0.07371462121918532
2500.0,-0.20194967221087343
2504.0,-0.11216558459889127
2508.0,-0.2540092600567076
2512.0,-0.20507300393659705
2516.0,-0.11823496368469166
2520.0,-0.07457554600040414
2524.0,0.04168653050323421
2528.0,0.030446407189916078
2532.0,0.03756908172202151
2536.0,-0.016157705936231517
2540.0,0.02731798069916676
2544.0,-0.058539324978262856
2548.0,0.08545124637339026
2552.0,0.005057296515665254
2556.0,-0.057818353535093084
2560.0,-0.00706659591881914
2564.0,-0.018192291000607475
2568.0,0.09607834536411873
2572.0,-0.005646226710560368
2576.0,-0.027938777558264627
2580.0,0.02148113684387372
2584.0,-0.02917444628133998
2588.0,0.011981626418551616
2592.0,-0.03796489693882013
2596.0,-0.01013844399869376
2600.0,-0.028411832631012553
2604.0,-0.07403718493544632
2608.0,0.0025064251598514676
2612.0,0.04628693908804478
2616.0,-0.04092217464240112
2620.0,0.10807502663255078
2624.0,-0.04292201080716755
2628.0,-0.00381748298338006
2632.0,-0.005746214613558355
2636.0,0.034136515560313066
2640.0,0.024675214472366043
2644.0,0.08077399802442557
2648.0,0.13615463584225057
2652.0,0.12096372180836071
2656.0,0.1302586782348435
2660.0,0.12529146528081406
2664.0,0.2541136985432781
2668.0,0.22723816286341053
2672.0,0.23106736356392116
2676.0,0.1859393632682248
2680.0,0.29444756311652776
2684.0,0.29532375832538876
2688.0,0.239185623523961
2692.0,0.293529291478747
2696.0,0.33146241166378365
2700.0,0.22636946900834742
2704.0,0.25466512237237343
2708.0,0.28580273097414344
2712.0,0.2726474524595364
2716.0,0.23567096192045048
2720.0,0.2783040161251635
2724.0,0.17445731408220774
2728.0,0.2177065933873905
2732.0,0.13530120954692146
2736.0,0.20620516137634337
2740.0,0.18758508822562148
2744.0,0.10408320004810968
2748.0,0.0738278015628588
2752.0,-0.03215347872778903
2756.0,0.07021423546435923
2760.0,0.019689902409489174
2764.0,0.02818376210648049
2768.0,0.010822631901028766
2772.0,0.01608580075527831
2776.0,-0.027801066244332925
2780.0,0.035552674435443535
2784.0,0.03600394155477462
2788.0,0.03633118632268963
2792.0,-0.03348080128831409
2796.0,-0.010658310821795662
2800.0,0.023423644434909185
2804.0,-0.02431479146825179
2808.0,-0.07152910022400465
2812.0,0.04987537050117814
2816.0,0.009869590068155598
2820.0,0.001496250464064705
2824.0,0.029800584442363345
2828.0,-0.04589446326904765
2832.0,-0.05969641996626201
2836.0,-0.07401951042809271
2840.0,0.04241743445950254
2844.0,0.02881491906161653
2848.0,-0.020770555022934845
2852.0,-0.0499373943107221
2856.0,0.01574158601010183
2860.0,0.06290141543431912
2864.0,0.01334195178458478
2868.0,-0.07600969051301734
2872.0,0.004367264458015343
2876.0,-0.05825597255164197
2880.0,-0.020804538885650717
2884.0,-0.0059578173889860515
2888.0,-0.03455866875238403
2892.0,-0.015575613546307265
2896.0,-0.1315412286336968
2900.0,-0.17564955163848836
2904.0,0.05720699731122134
2908.0,0.16100567165339189
2912.0,0.36140672399978213
2916.0,0.5619415761289781
2920.0,0.795514563218665
2924.0,1.0682470369112156
2928.0,0.7849925907403922
2932.0,0.5474148393881059
2936.0,0.3190178769083415
2940.0,0.2684667678803663
2944.0,0.01721814909496315
2948.0,-0.17230166789811352
2952.0,-0.1345354246884803
2956.0,-0.2539105077193762
2960.0,-0.29808236854734954
2964.0,-0.2032019436346548
2968.0,-0.1533718729667381
2972.0,-0.08147991492605419
2976.0,-0.03231989118921469
2980.0,0.02536179922332813
2984.0,0.12661408447483896
2988.0,-0.03224261663935633
2992.0,0.03375441533168346
2996.0,0.07549697856940399
3000.0,-0.04005101074756439
3004.0,0.08823763172029864
3008.0,0.022215591176181534
3012.0,-0.08321261703678645
3016.0,-0.08155942333835148
3020.0,-0.045670562380889616
3024.0,0.001698390795653452
3028.0,0.03960798924281015
3032.0,-0.04698770660537836
3036.0,-0.009927109530438785
3040.0,0.04389455441077164
3044.0,-0.09814957775428813
3048.0,0.031002272128137068
3052.0,-0.002167897428419206
3056.0,0.010858020468922732
3060.0,0.01303853286364845
3064.0,-0.055716789302937865
3068.0,-0.09135880583484479
3072.0,-0.037863961855163074
3076.0,0.06896673298652198
3080.0,-0.015311356265298804
3084.0,0.05049852830332993
3088.0,0.0480164799172543
3092.0,0.13076696616048192
3096.0,0.1365292804975324
3100.0,0.1330641460259783
3104.0,0.1036053750176109
3108.0,0.16732860329773835
3112.0,0.22115138100442955
3116.0,0.2092020748673435
3120.0,0.20465783370524154
3124.0,0.2262584034532212
3128.0,0.29880891204426857
3132.0,0.26947611975325125
3136.0,0.2786668181077283
3140.0,0.39075027542420765
3144.0,0.26392357481567486
3148.0,0.25049618185424755
3152.0,0.28316767967506334
3156.0,0.26296871418017365
3160.0,0.3020328590230092
3164.0,0.20031318307412857
3168.0,0.22807734299139992
3172.0,0.33282790159198056
3176.0,0.19093751331449854
3180.0,0.12432960755693447
3184.0,0.09297892748393341
3188.0,0.06599466114883633
3192.0,0.04679987279306573
3196.0,0.07508028311473217
3200.0,0.06330243692517948
3204.0,0.006546773993163101
3208.0,0.05921929797606158
3212.0,-0.04452301678048057
3216.0,0.010090173875377603
3220.0,-0.052065488220338185
3224.0,-0.009956890803743424
3228.0,-0.07952424031972014
3232.0,0.05338650429856817
3236.0,0.12347037479532147
3240.0,-0.014767491392787421
3244.0,-0.008629117523818983
3248.0,0.03810501745296501
3252.0,-0.057293893864277835
3256.0,0.021149461729615942
3260.0,-0.06203306902283559
3264.0,-0.08239601016632503
3268.0,0.009913218114392067
3272.0,-0.06621316063758971
3276.0,0.0632802858697295
3280.0,0.02284271594494482
3284.0,-0.042252404133991284
3288.0,0.020780481138641373
3292.0,0.016784128590901583
3296.0,-0.0902301974842299
3300.0,-0.06240972675994179
3304.0,0.020138021444753504
3308.0,-0.06583981128867021
3312.0,0.009943446434198165
3316.0,0.014047791228484652
3320.0,-0.06965599365004393
3324.0,-0.09923420505109712
3328.0,-0.13372101561415695
3332.0,-0.1619566197292673
3336.0,-0.00249154823863457
3340.0,0.2513296883624803
3344.0,0.3406273218438279
3348.0,0.568882398000972
3352.0,0.8516038584080878
3356.0,0.9379993867033158
3360.0,0.7564041292371118
3364.0,0.5733207763431839
3368.0,0.45607595494753694
3372.0,0.23255184793128103
3376.0,-0.015695784570730037
3380.0,-0.02346032958388162
3384.0,-0.07025343744783766
3388.0,-0.22570083611706496
3392.0,-0.30604707725239644
3396.0,-0.27396964014894554
3400.0,-0.1770806620382369
3404.0,-0.003956984590377743
3408.0,0.053457822718308394
3412.0,0.011059930731592692
3416.0,0.0531593852774353
3420.0,-0.03831604159090641
3424.0,0.02002546390883944
3428.0,0.024572729916646746
3432.0,-0.08062037159251975
3436.0,0.02956128987705511
3440.0,0.03392675796398009
3444.0,0.06487828846913729
3448.0,0.02636420826455438
3452.0,-0.013324457175921057
3456.0,-0.07491271761738204
3460.0,0.0023370811419321865
3464.0,-0.03878578161531678
3468.0,0.012882072933552716
3472.0,-0.09852589437649661
3476.0,-0.03187101080759195
3480.0,0.011498370491523836
3484.0,0.014799704782186812
3488.0,-0.007038892620648731
3492.0,0.02839872798976585
3496.0,0.09148873235741052
3500.0,0.04127160020467338
3504.0,-0.01743193491685834
3508.0,-0.039525812645827156
3512.0,-0.1338563777234187
3516.0,0.03440197483493427
3520.0,-0.004714468827057158
3524.0,0.06153228937643668
3528.0,0.1322855758030681
3532.0,0.1841211811988706
3536.0,0.09302445092376693
3540.0,0.15809426164926907
3544.0,0.15178089554330262
3548.0,0.2479978293076661
3552.0,0.16812306118916612
3556.0,0.25643686542216626
3560.0,0.26463361154237164
3564.0,0.23748775306306624
3568.0,0.39348187522949546
3572.0,0.2790279990900355
3576.0,0.28549295982599526
3580.0,0.26098371126277176
3584.0,0.314296150658729
3588.0,0.23511787884354185
3592.0,0.25180478998340694
3596.0,0.2727684799620405
3600.0,0.3508182663280275
3604.0,0.15421643811622598
3608.0,0.14026565619389325
3612.0,0.17150025522824336
3616.0,0.09767531864954407
3620.0,0.16348659661861825
3624.0,0.02179446926015212
3628.0,0.013097214608691912
3632.0,-0.005530258820614031
3636.0,0.020995411695901852
3640.0,0.06546546027788752
3644.0,0.013796568637499163
3648.0,-0.036155993402673885
3652.0,-0.058829198577675074
3656.0,0.027321732513927995
3660.0,0.01823183886806017
3664.0,0.029836106261624046
3668.0,0.026113074376781654
3672.0,-0.03353564480795627
3676.0,-0.023775320015867647
3680.0,-0.0607000692816339
3684.0,-0.022422242770156545
3688.0,0.03276408484203237
3692.0,-0.036046036194405676
3696.0,0.04025871772027198
3700.0,-0.023204081733610143
3704.0,0.017524691658059935
3708.0,0.005613954395503931
3712.0,-0.09111178886197412
3716.0,-0.05609317552629775
3720.0,0.01091647162528956
3724.0,-0.0069464857090091306
3728.0,0.03538307978282978
3732.0,0.011063474933410929
3736.0,0.056450569512488946
3740.0,-0.04976049868438789
3744.0,-0.03206624196012625
3748.0,0.053698384368695555
3752.0,0.12552938355948412
3756.0,0.002526714124976654
3760.0,-0.037022132370460904
3764.0,0.02949118737724637
3768.0,-0.03951230774785908
3772.0,0.033451622209752084
3776.0,-0.0039507256298586145
3780.0,0.03525825033070784
3784.0,-0.06352460990467713
3788.0,-0.01403473388119475
3792.0,-0.16842565650091512
3796.0,-0.03451948014873051
3800.0,0.17023921396096034
3804.0,0.43153461358302064
3808.0,0.578786219459294
3812.0,0.7061334852965002
3816.0,1.028341973945441
3820.0,0.8126627546708663
3824.0,0.6141962602585345
3828.0,0.4196146678871917
3832.0,0.21318781125954098
3836.0,0.009846661219911111
3840.0,-0.09212450939244624
3844.0,-0.1319530785986932
3848.0,-0.15079278086228048
3852.0,-0.3553773597164639
3856.0,-0.2205411050752627
3860.0,-0.1601630794418176
3864.0,-0.08084805404734081
3868.0,-0.034487489618951934
3872.0,-0.020845763253809567
3876.0,0.024109545149217343
3880.0,-0.019200285184162877
3884.0,-0.001680425226511669
3888.0,-0.02907475257198683
3892.0,-0.0202704859707349
3896.0,-0.054819007826718585
3900.0,-0.010113328884066918
3904.0,-0.05708522543533957
3908.0,-0.062453813987523324
3912.0,-0.004982442702449256
3916.0,0.03945413104557969
3920.0,0.001900670271204539
3924.0,0.009556927639243144
3928.0,0.04509105338075806
3932.0,-0.005288335327652056
3936.0,-0.06707769224964072
3940.0,0.004875617305534468
3944.0,-0.03893282601972981
3948.0,-0.049775488472394
3952.0,-0.04114959713009183
3956.0,-0.052800373132153224
3960.0,-0.028468978444593188
3964.0,-0.12123462783470505
3968.0,-0.04040673598825938
3972.0,0.03162131337417164
3976.0,0.013531838600025416
3980.0,-0.042407616065216
3984.0,0.0010205185499181854
3988.0,0.13339777902977315
3992.0,0.0879539856678648
3996.0,0.133712334640335
4000.0,0.14013709110487862
4004.0,0.20099855689459367
4008.0,0.29389727811316696
4012.0,0.2900883566211622
4016.0,0.1812098706470343
4020.0,0.2512428733181983
4024.0,0.21811355168189617
4028.0,0.2488047176147598
4032.0,0.3415850535026752
4036.0,0.3280705087061016
4040.0,0.3965650331785499
4044.0,0.2466234503578988
4048.0,0.19711834135247405
4052.0,0.3129766915732781
4056.0,0.22594115582338042
4060.0,0.2147497955897933
4064.0,0.26809575542550373
4068.0,0.2087443805373243
4072.0,0.20563371505444414
4076.0,0.07228998819601423
4080.0,0.052964780336947445
4084.0,0.0739742248756659
4088.0,0.1786529940847305
4092.0,0.08237508351289419
4096.0,-0.049347722481224515
4100.0,0.09900327336029377
4104.0,-0.12183434746705604
4108.0,-0.03292433487862683
4112.0,-0.03356763882442858
4116.0,-0.007838223491150337
4120.0,-0.02443996771183983
4124.0,-0.013866561137921191
4128.0,-0.011308498388443118
4132.0,0.10132859997443433
4136.0,0.055722759549408744
4140.0,0.03308089898736601
4144.0,-0.039315560077544415
4148.0,0.06946782927032424
4152.0,0.006003226281712095
4156.0,-0.019856919979319633
4160.0,-0.05804515057127673
4164.0,-0.04043368007176897
4168.0,0.048588916268327176
4172.0,-0.026197433732101063
4176.0,-0.07327665774433804
4180.0,0.028962978732637236
4184.0,0.035962322822164924
4188.0,0.06287409346103133
4192.0,-0.049972937010282846
4196.0,-0.04954146780048733
4200.0,-0.006659608262880493
4204.0,-0.03526492077837212
4208.0,0.03951725176557905
4212.0,0.012345921958965918
4216.0,0.09284956487537693
4220.0,0.0345906717192027
4224.0,-0.08174937718652003
4228.0,0.0036595716923579383
4232.0,0.03865120285762924
4236.0,-0.014258026975675325
4240.0,-0.028062221506768986
4244.0,0.041047272478709367
4248.0,-0.006671407400238917
4252.0,0.019029483630997823
4256.0,-0.05269226940480898
4260.0,0.020617134704205245
4264.0,-0.01536765723429099
4268.0,0.013302253975402207
4272.0,0.027258617540729935
4276.0,-0.060349758861660364
4280.0,0.05096204422880605
4284.0,0.044209968508436476
4288.0,0.054364017908797704
4292.0,0.053612859617009095
4296.0,-0.03696958548350457
4300.0,0.05029561925801145
4304.0,-0.08479278118330125
4308.0,0.007804765067167052
4312.0,-0.023858634056852276
4316.0,-0.004948301783071332
4320.0,0.11348925558137411
4324.0,-0.01835523521136903
4328.0,-0.0008811194759922602
4332.0,0.019618092222401046
4336.0,-0.008834095742314075
4340.0,-0.020706784142584273
4344.0,0.03799672275797911
4348.0,-0.01605204472209924
4352.0,0.01596155369137326
4356.0,0.06757124230758886
4360.0,-0.053121225300155776
4364.0,0.03622444706130259
4368.0,-0.0577388668519092
4372.0,0.040083402541215146
4376.0,-0.04079920471529974
4380.0,-0.005230025436080022
4384.0,-0.024332916888059
4388.0,-0.030716767788998622
4392.0,0.03620806464353769
4396.0,0.12620447187340186
4400.0,0.04635375949516984
4404.0,-0.049385743866829306
4408.0,-0.05130925333582984
4412.0,-0.009709544245113366
4416.0,0.0078039413537647415
4420.0,-0.11669741905391673
4424.0,-0.12367099460214231
4428.0,-0.0793295321270506
4432.0,0.07681052114426418
4436.0,0.21577434551939748
4440.0,0.4150132447842092
4444.0,0.572852873427203
4448.0,0.7216529047926497
4452.0,0.9617146136748607
4456.0,0.8455701239680116
4460.0,0.7022830209163905
4464.0,0.3665939779395928
4468.0,0.15898493454467771
4472.0,-0.025549019555800936
4476.0,-0.07344193892836876
4480.0,-0.12887472291583943
4484.0,-0.23088139771525776
4488.0,-0.3756672517606767
4492.0,-0.19188046526896205
4496.0,-0.14087611458918342
4500.0,-0.05534873812007249
4504.0,-0.0128921463604524
4508.0,-0.06012003108572844
4512.0,-0.006958583470519496
4516.0,0.04204155211949122
4520.0,-0.07528543827056966
4524.0,0.05367532052240997
4528.0,-0.04186870947124257
4532.0,0.01273788536733609
4536.0,-0.03985012764184761
4540.0,0.05328919409282118
4544.0,0.00990438269150256
4548.0,-0.010842255371984012
4552.0,0.01510635619972292
4556.0,-0.048287045530861175
4560.0,-0.02708950199891005
4564.0,-0.04207471838775473
4568.0,0.038783944937190076
4572.0,-0.04786448693570169
4576.0,0.061213953939634747
4580.0,0.010762298413802994
4584.0,0.002413250197343449
4588.0,-0.007201518629935705
4592.0,-0.10327564385855129
4596.0,-0.03512592886707559
4600.0,-0.05539391778255962
4604.0,-0.15018940687649185
4608.0,-0.09461091246594362
4612.0,-0.023257018894480543
4616.0,0.07213762696916914
4620.0,-0.04605019310078108
4624.0,0.2145638356345098
4628.0,0.2236794830905255
4632.0,0.14945058720949406
4636.0,0.25277477832431694
4640.0,0.22111226500261355
4644.0,0.300425892123321
4648.0,0.21489140823169864
4652.0,0.306886075332988
4656.0,0.08954816315229458
4660.0,0.23176395526909263
4664.0,0.3394285408611856
4668.0,0.35214315285788955
4672.0,0.2862959182259656
4676.0,0.2468955320531028
4680.0,0.28363159967998264
4684.0,0.19859802805206478
4688.0,0.31674768646386775
4692.0,0.2522335241992746
4696.0,0.317848418058011
4700.0,0.20898829325607443
4704.0,0.21944467848918392
4708.0,0.10628242487508253
4712.0,0.048756008350177224
4716.0,0.2022950550582318
4720.0,0.04789036511070414
4724.0,0.04517171843426943
4728.0,0.04277598128284119
4732.0,0.08721653309112232
4736.0,0.00961419756250273
4740.0,-0.010005203127522271
4744.0,0.06792562381876353
4748.0,0.014918490251049181
4752.0,-0.005733176858569337
4756.0,-0.015871935909394726
4760.0,0.007761408378076253
4764.0,-0.03568933129622678
4768.0,0.0035528586068583976
4772.0,0.0025568393808902377
4776.0,-0.004229167567729726
4780.0,-0.022074245301624593
4784.0,0.007940326291654004
4788.0,-0.056005046300377906
4792.0,-0.03077668814928964
4796.0,0.06887153064646734
4800.0,-0.038675994255895615
4804.0,0.027163091656535566
4808.0,-0.031195539868692824
4812.0,-0.07672884781684179
4816.0,0.01833810675278547
4820.0,0.02642539274302922
4824.0,-0.0503889373661523
4828.0,-0.027409341079067912
4832.0,-0.03203036963017783
4836.0,0.023189085508307162
4840.0,-0.10720008545087839
4844.0,-0.06196883509785337
4848.0,0.03609846134817359
4852.0,0.048985582848421035
4856.0,0.037701354797981285
4860.0,-0.07283662080367889
4864.0,0.12351737641827616
4868.0,-0.022975250831897068
4872.0,-0.030150204121646935
4876.0,-0.02530991368105705
4880.0,0.009469390609574288
4884.0,0.019920044712478692
4888.0,-0.025376278640930325
4892.0,0.05115790922747379
4896.0,-0.030709594861041602
4900.0,-0.08778916347064303
4904.0,0.020520529392429
4908.0,0.06740602380715827
4912.0,-0.013501263499633799
4916.0,0.10097253502154298
4920.0,-0.003504787160380431
4924.0,0.08194129399024996
4928.0,-0.08451662359808526
4932.0,-0.00691648918730753
4936.0,-0.02118325467416453
4940.0,0.03721338828162195
4944.0,0.010641779190599379
4948.0,-0.03174230328519991
4952.0,0.007867484479966463
4956.0,-0.09155342745971884
4960.0,-0.0639341491973341
4964.0,0.041970541006973526
4968.0,-0.08142352465397673
4972.0,0.003468054889997021
4976.0,0.08808503779300018
4980.0,-0.026830567182358708
4984.0,-0.047780524156820686
4988.0,0.014304849360332494
4992.0,-0.039424987669460926
4996.0,-0.00395712906843821
5000.0,0.1224641710610549
5004.0,0.03500062621435391
5008.0,-0.008204854644712496
5012.0,-0.06581466027331404
5016.0,-0.018987661739528927
5020.0,0.020820457096292287
5024.0,0.019927595004721632
5028.0,0.04500754798106207
5032.0,0.019422482717159704
5036.0,0.015255055537304836
5040.0,0.00807343544784826
5044.0,0.02892084150398685
5048.0,-0.03687896697959268
5052.0,-0.1515890117189666
5056.0,-0.01577439080322103
5060.0,-0.2337861726569158
5064.0,-0.1413200285835624
5068.0,-0.023104325476503457
5072.0,0.16493155379958613
5076.0,0.37390589374680067
5080.0,0.6919611026423943
5084.0,0.7939532480053085
5088.0,0.9535438874099783
5092.0,0.8581084814450537
5096.0,0.6587956499797242
5100.0,0.3728902000818187
5104.0,0.16525402900784592
5108.0,0.07936724584497905
5112.0,-0.027649150213030535
5116.0,-0.09166970156334005
5120.0,-0.30232854579453466
5124.0,-0.32552739630942346
5128.0,-0.16208721079966562
5132.0,-0.23752117761870228
5136.0,0.02893728710386166
5140.0,-0.05655663296880037
5144.0,0.07428948448262628
5148.0,0.06306920921274482
5152.0,-0.018825985781834597
5156.0,-0.012954076770842378
5160.0,-0.006775754786930515
5164.0,-0.056400632820934174
5168.0,0.0826819515949227
5172.0,-0.006411719400596841
5176.0,-0.009479773247424089
5180.0,-0.0072021836345026735
5184.0,-0.016421027735883994
5188.0,-0.06952676482437244
5192.0,0.07228974825289301
5196.0,-0.093601387641439
5200.0,-0.011342283142896802
5204.0,0.08170481212354735
5208.0,0.05146587401223157
5212.0,-0.013286710807126692
5216.0,-0.0030196453712296517
5220.0,-0.07628056728210761
5224.0,-0.0828727673709221
5228.0,0.0948964678170127
5232.0,-0.07937411982665113
5236.0,-0.06290790930681056
5240.0,0.042364233810955776
5244.0,-0.047689856147776405
5248.0,0.01871754364344156
5252.0,0.05720663423534565
5256.0,0.04910485679258909
5260.0,0.14059420823078098
5264.0,0.09970632845380985
5268.0,0.09280355635592691
5272.0,0.08328638396740073
5276.0,0.22150376380826195
5280.0,0.18609691642107715
5284.0,0.18209906349927785
5288.0,0.25212589839270866
5292.0,0.21463488292302807
5296.0,0.39193353725666014
5300.0,0.28072910674908735
5304.0,0.255866742327997
5308.0,0.3189833621769617
5312.0,0.32544132818630594
5316.0,0.2991068729483317
5320.0,0.365531320960383
5324.0,0.37062219965674575
5328.0,0.21994433844906927
5332.0,0.17857781013652385
5336.0,0.13873881071302557
5340.0,0.20449183435052004
5344.0,0.19802321910021495
5348.0,0.1844014315669725
5352.0,0.11252962965756827
5356.0,0.1283351476417968
5360.0,0.018641888090100235
5364.0,0.018308851740768593
5368.0,-0.04733123184644186
5372.0,0.00942650009439748
5376.0,-0.012942088504331636
5380.0,0.004440493178383192
5384.0,0.059353721713722954
5388.0,-0.0973570726624536
5392.0,-0.025260441861060197
5396.0,-0.011229282824688762
5400.0,0.03633048916171808
5404.0,0.07716421442178951
5408.0,-0.02469096320276016
5412.0,-0.033756754037029796
5416.0,-0.029541216453110954
5420.0,0.06688674756520978
5424.0,0.06838417075129036
5428.0,0.0539468152297865
5432.0,0.020594050800504932
5436.0,-0.009845359700682073
5440.0,-0.14753731972467368
5444.0,-0.05421081093684896
5448.0,-0.09085180496306994
5452.0,-0.048557361080018235
5456.0,0.06242328474534368
5460.0,0.0004217500293283024
5464.0,-0.011871917653813274
5468.0,-0.05344290385946418
5472.0,-0.09659447866262055
5476.0,-0.04594955596375769
5480.0,0.03275768850243892
5484.0,-0.07294831012760189
5488.0,-0.0634649083768182
5492.0,0.05262112129746423
5496.0,0.06004170612227376
5500.0,0.065375117335604
5504.0,-0.05014172439060108
5508.0,-0.028599709502239
5512.0,0.003224828573391149
5516.0,0.10193822562533539
5520.0,0.46061387654406294
5524.0,0.5311729420973564
5528.0,0.8263542323382994
5532.0,0.9502792307646478
5536.0,0.7871945063542043
5540.0,0.6412974885228611
5544.0,0.3142183856005546
5548.0,0.23199681876828776
5552.0,-0.06477914240337244
5556.0,-0.013973759911422239
5560.0,-0.10470459191882855
5564.0,-0.3543699800685315
5568.0,-0.3920177509687332
5572.0,-0.20355657315471581
5576.0,-0.15020974559610178
5580.0,-0.057096240129586626
5584.0,0.015839082957293228
5588.0,-0.08160666818859183
5592.0,0.1300506943865872
5596.0,-0.026450622049285857
5600.0,0.0747458059579464
5604.0,-0.0004164416751354234
5608.0,0.016183230313559907
5612.0,0.026327567327305592
5616.0,-0.07193016019351196
5620.0,-0.07663251372625919
5624.0,-0.0008466015920944927
5628.0,0.0068099684092416575
5632.0,-0.029341043427790328
5636.0,-0.07264817463938449
5640.0,0.06981531416811597
5644.0,0.04208700597420224
5648.0,-0.006141125900054556
5652.0,-0.05260782669224909
5656.0,0.11278404626769462
5660.0,0.03929769565819792
5664.0,-0.052998001058833746
5668.0,-0.014551786366631198
5672.0,0.04909047752963572
5676.0,-0.03479438222716207
5680.0,0.03916107287369136
5684.0,0.09529446004472558
5688.0,-0.05666329032533133
5692.0,0.07135021062652976
5696.0,0.011963230143832305
5700.0,0.07922385700712083
5704.0,0.060205170710682675
5708.0,0.07852431336682053
5712.0,0.17673278415076754
5716.0,0.09637475309321214
5720.0,0.231819379820705
5724.0,0.22393708830717024
5728.0,0.2508872977353492
5732.0,0.41421416678433365
5736.0,0.28985813931966703
5740.0,0.21619436830479552
5744.0,0.2880826616080867
5748.0,0.2635595184933655
5752.0,0.39463158627466133
5756.0,0.36192175950578054
5760.0,0.22206151759303627
5764.0,0.22050658867659736
5768.0,0.2842355060792122
5772.0,0.23624432917113825
5776.0,0.21682542110417688
5780.0,0.3268477448920608
5784.0,0.1443458826701959
5788.0,0.19445591725478625
5792.0,0.1409384110817136
5796.0,0.15712692324852284
5800.0,0.10395086827041237
5804.0,0.054508868938089386
5808.0,-0.022449186301031217
5812.0,0.09122045600737609
5816.0,0.04329622937257707
5820.0,-0.016894122739249357
5824.0,-0.011092822345263475
5828.0,0.01817698119068936
5832.0,0.0925383351843244
5836.0,0.09028646640601858
5840.0,0.03317671485191274
5844.0,0.01581816944787689
5848.0,-0.012676958370240313
5852.0,0.06346108908149949
5856.0,0.02663965736481874
5860.0,-0.016878827981777585
5864.0,-0.06992749316824806
5868.0,0.04954190398131004
5872.0,0.01691956412939819
5876.0,-0.014417403332917973
5880.0,0.01946158583999212
5884.0,-0.058311658426730334
5888.0,-0.06806967625416178
5892.0,0.026407343559902874
5896.0,-0.0665088414453612
5900.0,0.010570242642164506
5904.0,0.08432437888864092
5908.0,0.012005363222765643
5912.0,-0.07374867709397076
5916.0,-0.039915075549218054
5920.0,-0.09415237567345303
5924.0,0.02938068952884871
5928.0,0.049775471542723465
5932.0,0.00171339063447448
5936.0,-0.050669810019517605
5940.0,-0.01696958458699498
5944.0,-0.026648608943057178
5948.0,-0.0020542343335718926
5952.0,-0.051434185118169676
5956.0,0.007339975811758034
5960.0,0.016452040004706965
5964.0,-0.015707871489049965
5968.0,-0.012455462393730254
5972.0,0.03950449547424345
5976.0,-0.018432797161005085
5980.0,0.05433087806156659
5984.0,0.08322875553763014
5988.0,-0.08401463023911221
5992.0,-0.04929978956720881
5996.0,-0.0195177240205536
6000.0,0.0577095037764743
6004.0,0.040986398164766
6008.0,0.017139182702653827
6012.0,0.010604011202301752
6016.0,-0.0005866840199726018
6020.0,-0.028624192229732937
6024.0,0.050712991864399065
6028.0,0.07857801714559091
6032.0,-0.05395560895400258
6036.0,-0.007867172413402394
6040.0,-0.028229408292864078
6044.0,0.01534600666680788
6048.0,-0.03764217163000709
6052.0,0.009657580656008006
6056.0,0.06155981528572546
6060.0,0.007432467906947255
6064.0,-0.034455408979159836
6068.0,-0.0246287717934381
6072.0,0.007349533316222192
6076.0,-0.028237319863717615
6080.0,0.07073870189571564
6084.0,0.030794709773699632
6088.0,0.007952940270216414
6092.0,-0.09520943925624505
6096.0,0.04384179646359287
6100.0,0.033946279419877816
6104.0,0.07134441888203377
6108.0,0.07278183693670023
6112.0,0.01915943707795003
6116.0,-0.03298832165041088
6120.0,0.026492970633275756
6124.0,-0.01751407180537999
6128.0,-0.02882446258039953
6132.0,-0.13246983282199132
6136.0,-0.05742245972650352
6140.0,-0.0998772182738788
6144.0,-0.03301690492872643
6148.0,0.2113417440004496
6152.0,0.3173821474168088
6156.0,0.5845976281045774
6160.0,0.8115181738987031
6164.0,1.0129632710351504
6168.0,0.8259245892239037
6172.0,0.6313702624696703
6176.0,0.3650878170252958
6180.0,0.2229411916341512
6184.0,-0.028222139175299022
6188.0,-0.174833088408623
6192.0,-0.13039776098374195
6196.0,-0.24447817419610782
6200.0,-0.29803255232707015
6204.0,-0.08950553492222169
6208.0,-0.11867816185031924
6212.0,-0.07238690126299901
6216.0,0.04294986260355737
6220.0,-0.0482472786590817
6224.0,-0.05523543642815479
6228.0,-0.059703762585047795
6232.0,-0.01975404697663094
6236.0,0.041444120300594404
6240.0,0.08250924455972584
6244.0,0.011703870112633331
6248.0,-0.07266374784055402
6252.0,0.0016451286339431545
6256.0,0.06178232669200948
6260.0,0.09758308857998016
6264.0,0.15973985645312394
6268.0,-0.04680714592580429
6272.0,-0.06119166156610485
6276.0,-0.025498066620198958
6280.0,-0.04481776249156744
6284.0,-0.018668307984891226
6288.0,0.04849456393011537
6292.0,0.07194957534300829
6296.0,0.03652015986856328
6300.0,0.022648965961950124
6304.0,0.032760038735880785
6308.0,0.0023459178215056503
6312.0,0.008681658842701643
6316.0,0.0030908955975893024
6320.0,0.04052756261387652
6324.0,-0.024481767348503713
6328.0,0.08390224682595468
6332.0,0.09001469447833091
6336.0,0.14962454083146542
6340.0,0.022147692937552046
6344.0,0.16637954578889086
6348.0,0.1500630793082024
6352.0,0.18815779292503268
6356.0,0.25319701737022454
6360.0,0.18275347286789922
6364.0,0.3432158543198562
6368.0,0.2196977235347941
6372.0,0.25032103079253437
6376.0,0.34887221515387745
6380.0,0.31092621872292076
6384.0,0.24253130342994683
6388.0,0.30560142041577487
6392.0,0.2473143322634609
6396.0,0.32148094211917766
6400.0,0.22154662445836323
6404.0,0.2600347346312083
6408.0,0.19842379763134493
6412.0,0.21591775295831891
6416.0,0.2148877311474427
6420.0,0.2189116094465039
6424.0,0.16161425610821042
6428.0,0.08190801732100837
6432.0,0.16158587405258024
6436.0,0.13266532655042235
6440.0,0.022189981618865796
6444.0,0.01352979499334725
6448.0,0.03286166828762247
6452.0,0.029696136488309707
6456.0,0.06746195090506447
6460.0,-0.11040862423382312
6464.0,0.0828805331532139
6468.0,-0.05954957567140178
6472.0,0.05905201409929928
6476.0,0.0661619788867509
6480.0,-0.00795633764971534
6484.0,0.030751080240812446
6488.0,-0.01359028612610614
6492.0,-0.08129125787790584
6496.0,0.05581540794220277
6500.0,-0.01620052781771853
6504.0,0.025030233892498074
6508.0,-0.06474663646562358
6512.0,0.022718763154469454
6516.0,-0.015720365266828167
6520.0,-0.09197129567152132
6524.0,0.01053391686671679
6528.0,-0.05889249490946583
6532.0,-0.06021530742345654
6536.0,-0.08380723713936057
6540.0,0.10378947699061647
6544.0,-0.049004014528405054
6548.0,0.040016297404947
6552.0,0.009672465037656588
6556.0,0.002000265884016159
6560.0,0.0648705789427584
6564.0,0.010443565265327711
6568.0,0.045924256749075555
6572.0,0.03385897413343919
6576.0,-0.052753562632271316
6580.0,0.03895899971458086
6584.0,0.03037926626956702
6588.0,0.0717472851968904
6592.0,0.06357847727860035
6596.0,0.07497989413811398
6600.0,0.05889738619980642
6604.0,-0.08423577780880583
6608.0,0.056222453894024964
6612.0,0.003293737724099455
6616.0,0.020646940318692488
6620.0,0.023634879907690306
6624.0,-0.0034279396932823595
6628.0,0.010709255986015784
6632.0,-0.09662033172139543
6636.0,0.0550307988510791
6640.0,-0.06329916993845235
6644.0,-0.05805266775954335
6648.0,-0.12100584683134669
6652.0,0.09848919641925702
6656.0,0.2253902935338429
6660.0,0.463012712816686
6664.0,0.5134771150653669
6668.0,0.8482703971209309
6672.0,1.0255908431507879
6676.0,0.7527016519548353
6680.0,0.6007759476889061
6684.0,0.36259141283225726
6688.0,0.20132331849121612
6692.0,-0.03104974057224429
6696.0,-0.05124071257977597
6700.0,-0.10950681289014116
6704.0,-0.1766523232059164
6708.0,-0.2551686658311292
6712.0,-0.17602908202998294
6716.0,-0.21066031722876488
6720.0,-0.10197748761638849
6724.0,-0.013474834882171367
6728.0,-0.07551594187876512
6732.0,-0.018466280769466846
6736.0,0.0576769491984411
6740.0,0.016487116183685327
6744.0,0.01827824207686263
6748.0,-0.052829770059659935
6752.0,-0.042957258994395085
6756.0,-0.053129384960088955
6760.0,0.0493273294739279
6764.0,-0.06176706112804177
6768.0,-0.06668467753544678
6772.0,-0.008112553176817054
6776.0,-0.04947850027530994
6780.0,0.040925728642677295
6784.0,0.0574433852058791
6788.0,0.01184985541330244
6792.0,-0.040729920042543
6796.0,-0.004716679185383002
6800.0,-0.06275192340919471
6804.0,0.0021289429495634084
6808.0,-0.03778558238910845
6812.0,-0.07721725399389996
6816.0,-0.025458991947582645
6820.0,-0.05566933911193074
6824.0,-0.10412212693953429
6828.0,0.0852510697350683
6832.0,0.01631217219997803
6836.0,0.020136792115674727
6840.0,0.06215356354527518
6844.0,0.1320538726469655
6848.0,0.07487202383672413
6852.0,0.07555295620364634
6856.0,0.2029356916980044
6860.0,0.1894950955108622
6864.0,0.1635421442271434
6868.0,0.21204089455763167
6872.0,0.13314696092660677
6876.0,0.33087329504300456
6880.0,0.2057001886728253
6884.0,0.28201739139633014
6888.0,0.18578762587861383
6892.0,0.3110001105508951
6896.0,0.27156509144483587
6900.0,0.3605594746764992
6904.0,0.3025744016647777
6908.0,0.34182814930424793
6912.0,0.2150949004418604
6916.0,0.2599524472864045
6920.0,0.09048677469495867
6924.0,0.2881680501407405
6928.0,0.25580031365763783
6932.0,0.09901389987803752
6936.0,0.09875615974745393
6940.0,0.053225840624237165
6944.0,0.1296638641403979
6948.0,0.05534723231606821
6952.0,-0.0121950607888315
6956.0,-0.03530267184899542
6960.0,0.03470332593927845
6964.0,0.010845474039851153
6968.0,0.049045492154876816
6972.0,-0.009291919888684828
6976.0,0.08623939133783251
6980.0,0.03312151526628623
6984.0,-0.03653381655308384
6988.0,-0.03202037362681112
6992.0,0.03656766643264449
6996.0,-0.005687578747171868
7000.0,0.045596170306371954
7004.0,0.06648613855139165
7008.0,0.046397144952254124
7012.0,0.012701345324713544
7016.0,0.023153224070558268
7020.0,-0.10444466807394447
7024.0,-0.04211998165854486
7028.0,-0.039324079304163914
7032.0,-0.027643127907548772
7036.0,-0.03822308609927963
7040.0,-0.026202259102327624
7044.0,0.039124251501820605
7048.0,-0.003895010383485057
7052.0,0.0060607677261797005
7056.0,0.09214272862267688
7060.0,0.016359709591796442
7064.0,0.05987868486166401
7068.0,-0.020906827670071845
7072.0,0.013145013617679245
7076.0,-0.04348586434284275
7080.0,-0.04684276609117213
7084.0,-0.04356427202105337
7088.0,0.09859464309780784
7092.0,-0.14441948236143373
7096.0,-0.03585509729857813
7100.0,-0.00972603337307925
7104.0,0.11132152319491909
7108.0,0.03162915299291558
7112.0,0.01596623574604249
7116.0,0.026535466316654502
7120.0,-0.025559042894876507
7124.0,-0.10940070317197524
7128.0,0.07164079510241121
7132.0,-0.004301718138002247
7136.0,-0.03955667600901486
7140.0,-0.0047369318726935864
7144.0,0.07176874082959493
7148.0,0.034842744031458046
7152.0,0.06273815789659405
7156.0,-0.15096710984505554
7160.0,-0.008768103339632561
7164.0,0.02920134224259188
7168.0,0.00023664055006880679
7172.0,0.0333884248327831
7176.0,0.03925610734969378
7180.0,-0.026648541881098373
7184.0,-0.06733145907595743
7188.0,-0.02797620350948024
7192.0,0.07922150841109837
7196.0,0.05967762072211851
7200.0,0.025432754444511787
7204.0,-0.022136114631448878
7208.0,-0.03322054614376516
7212.0,-0.02251205744754327
7216.0,0.026987999551958228
7220.0,-0.07669376040774568
7224.0,0.016831344697165355
7228.0,-0.05303837126154964
7232.0,0.04933513750218375
7236.0,-0.031149813269863463
7240.0,-0.01554890667295615
7244.0,-0.0854127600981597
7248.0,0.06075149913628047
7252.0,0.05381503958477432
7256.0,0.026303287078621652
7260.0,-0.018551741611419512
7264.0,-0.0013905384552199036
7268.0,0.0067016231426633545
7272.0,0.02360589491979287
7276.0,-0.029206858278372473
7280.0,0.023480487086278194
7284.0,-0.02283722827461184
7288.0,0.008193108480748367
7292.0,-0.016011631561991736
7296.0,-0.07666907446691079
7300.0,-0.008009597733912086
7304.0,0.04607018770504143
7308.0,-0.023410486219775536
7312.0,-0.02368358454282042
7316.0,0.03513180854087881
7320.0,-0.08873741556548347
7324.0,0.035526250786455923
7328.0,0.000830175798024666
7332.0,0.00127555630212772
7336.0,0.03685094790534593
7340.0,0.030421099779343642
7344.0,-0.09277745390494141
7348.0,-0.006490866949985668
7352.0,-0.04764748369796763
7356.0,-0.040159709084820555
7360.0,-0.07419668197593031
7364.0,0.03072798613729251
7368.0,0.09962771411992723
7372.0,-0.07025592206442464
7376.0,0.022393984012508257
7380.0,-0.10732901941330437
7384.0,-0.13101292558540328
7388.0,-0.19157078014003848
7392.0,-0.17919382878816506
7396.0,0.03620422643087803
7400.0,0.24120441311346189
7404.0,0.40976307745478163
7408.0,0.6280526500710153
7412.0,0.7407110126975309
7416.0,1.1168076634811968
7420.0,0.7486536890570591
7424.0,0.6366756745583073
7428.0,0.40809158057946426
7432.0,0.19164250186193627
7436.0,-0.04949518110961496
7440.0,-0.08674664819903811
7444.0,-0.20064337743082591
7448.0,-0.28678698784482054
7452.0,-0.33541167329919486
7456.0,-0.2067000336306304
7460.0,-0.1996874754184813
7464.0,-0.117928762879304
7468.0,-0.028738654696795804
7472.0,-0.029709741627283154
7476.0,0.03454258820440397
7480.0,0.007986528931702373
7484.0,0.06867525926049109
7488.0,0.005144079401154189
7492.0,-0.0674763875491888
7496.0,0.07817453277342905
7500.0,-0.05855762871417547
7504.0,0.020421969367596278
7508.0,-0.03517228312002688
7512.0,-0.03794572350174848
7516.0,-0.0918100511118527
7520.0,0.03723973650733047
7524.0,0.06815028676353538
7528.0,-0.0075161810444465465
7532.0,0.017382466352291872
7536.0,0.032245338614602936
7540.0,0.035063434757769636
7544.0,0.019708690340921736
7548.0,0.004487094494211942
7552.0,0.03923559832023846
7556.0,-0.00884806700348844
7560.0,0.04963666480304176
7564.0,0.023515100430393107
7568.0,0.08832475480690533
7572.0,0.011097166202743827
7576.0,0.03392063491028287
7580.0,0.03505586246867121
7584.0,0.0057204871576472735
7588.0,0.056325976256499606
7592.0,0.13613944412018827
7596.0,0.14868742166794002
7600.0,0.0891612186599921
7604.0,0.22091140628109918
7608.0,0.17853523749833164
7612.0,0.22068141625503027
7616.0,0.3244924281824199
7620.0,0.21962346192156468
7624.0,0.20944618531732373
7628.0,0.24844682517022487
7632.0,0.2266684461162533
7636.0,0.25974078122219235
7640.0,0.2769694079478649
7644.0,0.3424818520264421
7648.0,0.2769009969336257
7652.0,0.25265608296620934
7656.0,0.19514173214004737
7660.0,0.24797490511434817
7664.0,0.2735610009958227
7668.0,0.20951866380866377
7672.0,0.16198546024440316
7676.0,0.12339027175320438
7680.0,0.1634840172710177
7684.0,0.09536502840597916
7688.0,-0.03531047667802273
7692.0,0.09450791406302946
7696.0,0.05622401183134223
7700.0,-0.0686345074476022
7704.0,-0.0002708336448715125
7708.0,-0.02426243488728578
7712.0,0.06659017500357776
7716.0,0.0007697313784931614
7720.0,0.011231807895600078
7724.0,-0.012466808224508423
7728.0,-0.012803309149745866
7732.0,-0.026622388856956038
7736.0,-0.017919324962048126
7740.0,0.03477182175614199
7744.0,-0.0330315049299205
7748.0,-0.03756540853364941
7752.0,-0.041643183952032106
7756.0,-0.06612841938872797
7760.0,0.009215027538332884
7764.0,-0.020687010173404817
7768.0,0.03600133257549098
7772.0,-0.0077035828444091655
7776.0,-0.0991119390072165
7780.0,0.014586733121006274
7784.0,-0.028534588266191305
7788.0,0.013302753275163642
7792.0,0.04927580242226112
7796.0,-0.0830852239199451
7800.0,-0.026072520605108715
7804.0,-0.02647490134147031
7808.0,-0.028873238180100198
7812.0,-0.0687684110501978
7816.0,-0.0033490454504257515
7820.0,-0.05725252155686671
7824.0,-0.02213705969694244
7828.0,-0.05437533640639351
7832.0,0.01885483706032383
7836.0,-0.0872044423631789
7840.0,-0.13138022350298287
7844.0,0.00014369323197294128
7848.0,0.24768369160991818
7852.0,0.3855418389602287
7856.0,0.5632204374055464
7860.0,0.7954576131078659
7864.0,1.04642860603955
7868.0,0.8122675613025977
7872.0,0.5215237691328036
7876.0,0.3356525852939338
7880.0,0.24612320145802927
7884.0,0.05967321050296981
7888.0,-0.01385172552205706
7892.0,-0.16284759907890795
7896.0,-0.313197046056622
7900.0,-0.25685347404958253
7904.0,-0.2857071321922213
7908.0,-0.21580277469548761
7912.0,0.0005798136266784298
7916.0,0.04136596095007406
7920.0,-0.09095774320719191
7924.0,-0.0185591029736849
7928.0,0.045187489617607976
7932.0,0.04490057926420891
7936.0,-0.08681746450016788
7940.0,0.08001472243877279
7944.0,0.008306835324498415
7948.0,-0.0035741587424629275
7952.0,0.012470866684859345
7956.0,-0.02111824227041965
7960.0,0.003364176024076242
7964.0,-0.061476934047090995
7968.0,-0.021779576624428944
7972.0,-0.047284260807480535
7976.0,0.03329195298416185
7980.0,0.01604064858255091
7984.0,0.0231548921618997
7988.0,0.06888682756116708
7992.0,-0.09969549516197138
7996.0,0.020429720311434287
8000.0,0.08678885447265543
8004.0,0.07460584402327543
8008.0,0.024236140935874045
8012.0,-0.08944592601579066
8016.0,-0.0856222150283305
8020.0,0.09466450579870309
8024.0,-0.017142520993500093
8028.0,0.02034843674023131
8032.0,0.06160730757276425
8036.0,0.1896482023825364
8040.0,0.072746526274415
8044.0,0.2124312693718226
8048.0,0.057713492711337355
8052.0,0.2095516912549961
8056.0,0.2392106892653578
8060.0,0.28742457920001424
8064.0,0.2477040583280522
8068.0,0.27860347603875985
8072.0,0.26633607070783183
8076.0,0.28005831619204646
8080.0,0.35116647631836284
8084.0,0.301766480982476
8088.0,0.23786493332665393
8092.0,0.3089073676655994
8096.0,0.34999700019208585
8100.0,0.2752740444385895
8104.0,0.2884204663370007
8108.0,0.17536665113212563
8112.0,0.2001425567399679
8116.0,0.2624207604146982
8120.0,0.25085643556379345
8124.0,0.2133865140917729
8128.0,0.12113354329005266
8132.0,0.15299328220116923
8136.0,0.10986367223805367
8140.0,-0.015129094311903457
8144.0,0.04270315049897392
8148.0,-0.0024087992092244703
8152.0,0.03378310678585044
8156.0,0.03886703580978965
8160.0,-0.004933255759373108
8164.0,-0.08571957732975911
8168.0,-0.022804382346680665
8172.0,0.011632322110814339
8176.0,0.10278072244309407
8180.0,-0.005574600953584012
8184.0,0.016342563453159376
8188.0,-0.013743216108479648
8192.0,0.0031622087552626355
8196.0,-0.016484883355790125
8200.0,-0.02555927781723672
8204.0,0.011569840477448558
8208.0,-0.05788006457572781
8212.0,-0.010293319050270158
8216.0,-0.029326402501697553
8220.0,0.010660530029758461
8224.0,-0.060683119050553486
8228.0,0.013093220483460935
8232.0,-0.05198651342717826
8236.0,-0.040872767507975735
8240.0,0.05119005551130249
8244.0,-0.04245263705816374
8248.0,-0.032058747835252414
8252.0,0.10233431016938715
8256.0,0.02173693342819696
8260.0,-0.01608250640898625
8264.0,0.07031479682743735
8268.0,-0.018688829484865034
8272.0,0.0018603583160080894
8276.0,0.03309336988197572
8280.0,0.0926427783213402
8284.0,0.034183450007794415
8288.0,-0.0725394246103148
8292.0,-0.0018297260297873803
8296.0,-0.0005071387482163533
8300.0,0.1234698622784975
8304.0,0.027033136474518934
8308.0,0.004771670053559078
8312.0,0.03057096159174498
8316.0,-0.040213672427812736
8320.0,0.16651652088498192
8324.0,-0.06067386562725548
8328.0,0.0004565816311542343
8332.0,0.0050413238257266055
8336.0,0.0444161724605726
8340.0,0.004850732731175392
8344.0,-0.00640427806133013
8348.0,0.07505807078185062
8352.0,-0.08714908247065889
8356.0,0.09827978617295267
8360.0,0.02109696387783031
8364.0,-0.02531609879673601
8368.0,0.03164529175418157
8372.0,-0.04552361298403344
8376.0,0.006374998612771826
8380.0,0.06403154212447794
8384.0,-0.10546855534994576
8388.0,0.04557172280654797
8392.0,-0.02975948556179833
8396.0,-0.02123224378003705
8400.0,-0.0014027234236208142
8404.0,-0.005786159037116155
8408.0,-0.03894884812702176
8412.0,-0.05404122274087301
8416.0,0.00644908392767024
8420.0,0.03809405929584643
8424.0,-0.0011445641486778249
8428.0,-0.04050117966093438
8432.0,-0.05439458773507555
8436.0,-0.14691005295429085
8440.0,-0.21317343238117673
8444.0,-0.06001437685158477
8448.0,-0.06989116940541423
8452.0,0.19104109453575227
8456.0,0.3537344542813769
8460.0,0.6339659947472991
8464.0,0.8732208173590907
8468.0,0.9917686646671937
8472.0,0.8827223939916455
8476.0,0.620537217080211
8480.0,0.39956622339171854
8484.0,0.2748476922859676
8488.0,0.04137489404714942
8492.0,-0.14153628079907654
8496.0,-0.143483547083789
8500.0,-0.2444936232968648
8504.0,-0.271379186884897
8508.0,-0.17058520117928622
8512.0,-0.09304957666470384
8516.0,-0.14518131465010484
8520.0,-0.030128828178479505
8524.0,0.0372678909576724
8528.0,0.032740709293797014
8532.0,-0.0005915429198920441
8536.0,-0.02123719873329394
8540.0,-0.03835415206067692
8544.0,-0.012932253794561466
8548.0,-0.019021347735583224
8552.0,0.1039953553193141
8556.0,0.00873584090115327
8560.0,0.017901666988055547
8564.0,-0.04301568057188368
8568.0,0.06940730986447512
8572.0,0.10053279426149937
8576.0,-0.0043367702009109435
8580.0,-0.1447751317361377
8584.0,0.012970508289007114
8588.0,-0.025146196934918336
8592.0,0.026224678570507406
8596.0,8.101015736065517e-05
8600.0,0.057503479008409325
8604.0,-0.017735120316371856
8608.0,-0.010255286405668149
8612.0,-0.011977855226178719
8616.0,-0.05100410966461547
8620.0,-0.07918348213609377
8624.0,0.031040977488444862
8628.0,-0.036035129427104934
8632.0,-0.045016704354677244
8636.0,-0.03224298117646231
8640.0,0.03887983767449676
8644.0,0.11326507399474928
8648.0,0.1823071278191958
8652.0,0.19010386449158956
8656.0,0.22518254569984628
8660.0,0.2910837525184854
8664.0,0.2771785468438225
8668.0,0.3624199497512689
8672.0,0.2449125535289396
8676.0,0.22278503781876946
8680.0,0.22193384718237721
8684.0,0.28098059275956017
8688.0,0.33481483927521904
8692.0,0.35363005470971154
8696.0,0.3604718887747144
8700.0,0.2281684604663597
8704.0,0.3142231804163558
8708.0,0.28989217835716324
8712.0,0.2666468451636637
8716.0,0.22944209430258877
8720.0,0.18859353169034362
8724.0,0.12947738984453916
8728.0,0.18261698385858505
8732.0,0.08421118874786976
8736.0,0.19295684537014518
8740.0,0.04386005658777639
8744.0,-0.01873040052807215
8748.0,0.030961361974193847
8752.0,-0.0664813069971044
8756.0,0.08391793592228369
8760.0,0.1020875328519177
8764.0,-0.012582091756577886
8768.0,-0.05444766363970854
8772.0,0.001283979355730061
8776.0,0.06712343849631126
8780.0,0.013696949383324051
8784.0,0.049366933937143365
8788.0,-0.09894986260828062
8792.0,-0.03593316249174349
8796.0,0.01953831885046669
8800.0,0.015156795453094033
8804.0,-0.07215040874780453
8808.0,-0.014498868844109487
8812.0,0.058754219688669874
8816.0,0.06393018172719434
8820.0,-0.016835821720336017
8824.0,0.00023994251462583732
8828.0,0.08050372322795216
8832.0,0.001821185301145777
8836.0,-0.03734289628429263
8840.0,-0.0761351064569048
8844.0,-0.03548322605478559
8848.0,0.0256220151612162
8852.0,-0.030633668886045008
8856.0,0.04646197941156037
8860.0,-0.07230129400273719
8864.0,0.0028110390587910553
8868.0,0.0310566118803302
8872.0,0.0115900729187285
8876.0,-0.05866862737163431
8880.0,-0.00306470336303708
8884.0,0.006272771323744534
8888.0,-0.03202123277265228
8892.0,-0.02077320187978884
8896.0,0.007975608382499439
8900.0,-0.09756592147658633
8904.0,0.0861249313785632
8908.0,0.01314141945357595
8912.0,0.019898262311066534
8916.0,0.054922717368855636
8920.0,-0.03147946165613749
8924.0,0.038462457665728755
8928.0,0.006059025902906197
8932.0,0.0364190090355076
8936.0,-0.030244895254292567
8940.0,-0.026369584848477998
8944.0,-0.06980257269606661
8948.0,-0.025028902357311762
8952.0,0.04555332553454139
8956.0,0.09016637570856312
8960.0,-0.03312524459675926
8964.0,-0.03292239677210112
8968.0,-0.07462473238808641
8972.0,-0.08316876800176007
8976.0,-0.04462952643678101
8980.0,-0.17519912525849332
8984.0,-0.18878275869519734
8988.0,0.04180992948301736
8992.0,0.14200125906827302
8996.0,0.3884479724360557
9000.0,0.5707697330078179
9004.0,0.8382242848692998
9008.0,0.8956421372293594
9012.0,0.7907480648638188
9016.0,0.5475108318379454
9020.0,0.3919730853924633
9024.0,0.19890326932319313
9028.0,0.007633369293352345
9032.0,-0.03575974223625403
9036.0,-0.20570127769052593
9040.0,-0.27704039511037265
9044.0,-0.3404649959311452
9048.0,-0.23625021439879473
9052.0,-0.11917260117650187
9056.0,-0.10783037816263313
9060.0,0.02839369677747205
9064.0,-0.07119999353746898
9068.0,-0.04282364883387735
9072.0,-0.03249900214838363
9076.0,-0.0071969383387487686
9080.0,0.01822381342930829
9084.0,0.012031261805693548
9088.0,-0.017597295827858968
9092.0,0.004647234754149012
9096.0,0.04648892488087162
9100.0,0.03198173638085824
9104.0,-0.006335826990161702
9108.0,-0.04490574412012385
9112.0,0.07766412268266613
9116.0,-0.05922235312010038
9120.0,0.005626752803622065
9124.0,-0.013144530026558274
9128.0,-0.0016261564168948692
9132.0,0.10977193150153902
9136.0,-0.0358923464175966
9140.0,0.05472991836375684
9144.0,0.009389460867499987
9148.0,0.05255749216930253
9152.0,-0.03276530933659787
9156.0,0.023093569899350068
9160.0,0.034636238494804655
9164.0,-0.006620112305037
9168.0,-0.024890506307387438
9172.0,0.08622533960675323
9176.0,0.0006243304846982184
9180.0,0.13679135241786536
9184.0,0.08297618536611634
9188.0,0.16720863388702317
9192.0,0.12516990249115445
9196.0,0.2103505306867376
9200.0,0.29857644492731655
9204.0,0.28521658372851033
9208.0,0.29044007286189216
9212.0,0.2981378138229552
9216.0,0.37988753439107
9220.0,0.4209221760075489
9224.0,0.3177458720379233
9228.0,0.34650328488987103
9232.0,0.3071148649383448
9236.0,0.2943859447774254
9240.0,0.3392437194461856
9244.0,0.27995372632867366
9248.0,0.2750729486366709
9252.0,0.265820181035431
9256.0,0.14951190265159975
9260.0,0.19977255294044013
9264.0,0.21553171369003493
9268.0,0.1510390015233643
9272.0,0.05827098822776558
9276.0,0.07647685834941784
9280.0,0.042134749915491446
9284.0,0.0476324417976145
9288.0,-0.007613202593395218
9292.0,-0.08469510913819434
9296.0,0.026533932289705794
9300.0,0.044880845252874356
9304.0,0.00923490963951287
9308.0,-0.026452534412846007
9312.0,-0.03407960266412858
9316.0,0.09328163054726485
9320.0,0.004816383303906831
9324.0,0.06618973023574957
9328.0,-0.006223991208035539
9332.0,0.0325789220398563
9336.0,-0.030351679451123204
9340.0,-0.09332826464694889
9344.0,-0.04369549811175797
9348.0,-0.04706556815964406
9352.0,-0.02845920870058796
9356.0,-0.05279565370040469
9360.0,0.03379833225414524
9364.0,0.033813715099922294
9368.0,0.07174509138103236
9372.0,0.06966993935987326
9376.0,0.03883644211781718
9380.0,-0.10933444200954733
9384.0,-0.06395779008813951
9388.0,0.007303999227049482
9392.0,-0.012201662413494255
9396.0,0.031654518540903155
9400.0,-0.009090041444167711
9404.0,-0.004426501398568569
9408.0,0.07786663361307744
9412.0,0.03128467803027868
9416.0,0.025651189438253764
9420.0,0.027194143183109632
9424.0,0.03178216225327843
9428.0,0.07353848003444578
9432.0,-0.032647265741178884
9436.0,0.06565422810882779
9440.0,-0.011139093960601018
9444.0,-0.00822185917845293
9448.0,0.04157599156930874
9452.0,0.03088102761326357
9456.0,0.037092925874117125
9460.0,-0.05855011133475829
9464.0,0.04001590013801356
9468.0,0.041140386608842006
9472.0,-0.03520179860675818
9476.0,-0.028366811441074835
9480.0,0.00026152869221807574
9484.0,0.04090803651906231
9488.0,0.0061544474630503805
9492.0,0.03257315018927128
9496.0,0.003899243678792458
9500.0,-0.0012597419210663128
9504.0,-0.05095643973839908
9508.0,-0.10808121957645045
9512.0,0.0284078242824094
9516.0,0.03262690395963458
9520.0,0.00846527949021655
9524.0,0.026148677409026874
9528.0,0.0058861303346142355
9532.0,-0.05471471014093343
9536.0,-0.017385791138208602
9540.0,0.015966345537181844
9544.0,-0.0790202159119391
9548.0,0.027953255410269114
9552.0,0.014241230176244346
9556.0,-0.1125476391270139
9560.0,-0.0705533890958214
9564.0,-0.28337333717088287
9568.0,-0.06563995127490395
9572.0,0.20006001156441328
9576.0,0.5101895948395301
9580.0,0.6137160219784172
9584.0,0.7993280867534949
9588.0,0.9888663996018263
9592.0,0.8360424140675069
9596.0,0.5952263683395188
9600.0,0.5310504968651866
9604.0,0.3569505417186137
9608.0,-0.03163876658024415
9612.0,-0.018898392604726748
9616.0,-0.1750221735002953
9620.0,-0.21397963982917634
9624.0,-0.3624065132601459
9628.0,-0.2566853779132377
9632.0,-0.18722100753099694
9636.0,-0.00777493322773562
9640.0,-0.007215518816302166
9644.0,0.1163899340952632
9648.0,-0.005677837424718777
9652.0,-0.02162609600914605
9656.0,-0.025747485681844286
9660.0,0.09156383952384707
9664.0,0.03467805022952538
9668.0,-0.06093899878606854
9672.0,-0.025365027747403786
9676.0,-0.07719449960703273
9680.0,0.07468966341840343
9684.0,-0.00588688883735463
9688.0,0.09532237015385987
9692.0,-0.013760010985131983
9696.0,0.09943601060916574
9700.0,0.03798421562186131
9704.0,-0.005033587441288852
9708.0,-0.041473242261468514
9712.0,-0.02697309575630032
9716.0,0.07277996706770645
9720.0,0.02931127509604109
9724.0,-0.0018329394290952103
9728.0,0.010072005326089251
9732.0,0.03519203090327957
9736.0,-0.06385451097129084
9740.0,-0.05371037858359502
9744.0,0.052439868743066546
9748.0,0.0024175276737297396
9752.0,0.010458256855009864
9756.0,0.021298852404267002
9760.0,-0.01653548515380246
9764.0,0.055927352841844094
9768.0,0.1760570864172416
9772.0,0.1292142917049914
9776.0,0.23620807523618792
9780.0,0.1975445711557059
9784.0,0.2694027635483986
9788.0,0.22755665052319388
9792.0,0.29808322862884296
9796.0,0.3273542465318265
9800.0,0.20674657699086096
9804.0,0.34925579123550793
9808.0,0.2724449821058432
9812.0,0.2312504823731375
9816.0,0.3134278051482436
9820.0,0.21664537107776916
9824.0,0.23553653356735324
9828.0,0.2979129699856126
9832.0,0.2672583078090493
9836.0,0.207773851692085
9840.0,0.15461257437925488
9844.0,0.20255740007983386
9848.0,0.08875426186097089
9852.0,0.04965488628060365
9856.0,0.18174156820947712
9860.0,0.0015829804944413259
9864.0,-0.0238838804722475
9868.0,-0.007796767401329659
9872.0,0.05709858344290095
9876.0,0.023038325012850414
9880.0,-0.07817367327236154
9884.0,-0.05992401075081671
9888.0,-0.04736475916686848
9892.0,-0.06435191132909011
9896.0,0.04773729519572225
9900.0,0.04751241614646021
9904.0,0.03707161319821602
9908.0,0.09585886272713336
9912.0,-0.0441671752913845
9916.0,0.03670400575433056
9920.0,0.012081083291780936
9924.0,0.023909853911683796
9928.0,-0.012779427586569284
9932.0,0.04288494668710226
9936.0,0.1060916873382568
9940.0,-0.02766749127197221
9944.0,-0.0009619307159350974
9948.0,0.018437298939277372
9952.0,-0.05929808978105692
9956.0,0.0430482529965879
9960.0,0.015337626163999791
9964.0,-0.045087090534903757
9968.0,0.06543430929179908
9972.0,-0.009440718822327688
9976.0,0.024494402044517895
9980.0,-0.03772230122177552
9984.0,0.019097887964941416
9988.0,-0.025668212120045816
9992.0,0.09337756585243533
9996.0,0.020282344325528806
10000.0,-0.029935417733121375
10004.0,-0.02850612740841746
10008.0,0.0343411328522937
10012.0,0.01041792270057558
10016.0,0.035733537772605205
10020.0,-0.06142794454604416
10024.0,-0.019888814693849913
10028.0,0.0012753467691366854
10032.0,-0.07813524570375197
10036.0,-0.08755944538959394
10040.0,-0.0888824977953146
10044.0,-0.15996074146849956
10048.0,-0.052325120526937975
10052.0,0.23455620089998863
10056.0,0.4397417909330407
10060.0,0.7236381378614527
10064.0,0.7659311791598596
10068.0,1.038498638963394
10072.0,0.7672620749411722
10076.0,0.5684234249030855
10080.0,0.38544686069579076
10084.0,0.18903123381683548
10088.0,-0.014949446755466484
10092.0,-0.004511553623659459
10096.0,-0.17416535904442104
10100.0,-0.21779791907601304
10104.0,-0.2916919267379622
10108.0,-0.2516193485976069
10112.0,-0.08085035090433437
10116.0,-0.138169261167599
10120.0,0.017058577876016976
10124.0,-0.015163583078456623
10128.0,-0.05370679528267458
10132.0,0.05265790062623944
10136.0,0.010044051689282543
10140.0,-0.07231295873474501
10144.0,0.037582743617209105
10148.0,0.03359426003668666
10152.0,0.035628843508127166
10156.0,0.017974509760415334
10160.0,0.07107226008248516
10164.0,-0.006019389426602385
10168.0,-0.016874716034910513
10172.0,0.06671111112631102
10176.0,0.017116779460986508
10180.0,-0.04779691924015078
10184.0,0.06603262584806976
10188.0,0.03750612000036535
10192.0,0.04866656267313534
10196.0,0.04392026251676342
10200.0,0.019942718487285654
10204.0,-0.053245767482870646
10208.0,0.010848739210834353
10212.0,-0.008509242746303332
10216.0,-0.011225587617053293
10220.0,0.039550846485788785
10224.0,0.03954112648067111
10228.0,-0.02142217421825666
10232.0,0.03860839332911402
10236.0,0.02792927705377865
10240.0,0.14677460002413012
10244.0,0.10410779125141797
10248.0,0.1919862451546825
10252.0,0.17565156430089948
10256.0,0.21190320704022206
10260.0,0.2347643928741317
10264.0,0.28032925216713594
10268.0,0.2826604920575253
10272.0,0.26089464596366646
10276.0,0.3872479206633671
10280.0,0.28813138801581184
10284.0,0.2988851675635213
10288.0,0.23809994710468174
10292.0,0.3431074640839767
10296.0,0.319947210803239
10300.0,0.3474636080136412
10304.0,0.2738246041212807
10308.0,0.26781017334284685
10312.0,0.23199578966506157
10316.0,0.1740176313073323
10320.0,0.1605789143397755
10324.0,0.07786520944435013
10328.0,0.149855293999177
10332.0,0.03756758631877921
10336.0,0.09680119755749396
10340.0,0.02559700307756746
10344.0,-0.033588491600359274
10348.0,-0.0051928627723940015
10352.0,-0.014865372190717666
10356.0,-0.014398451766246198
10360.0,0.022373803410036107
10364.0,0.04160719922165
10368.0,-0.06843785930882085
10372.0,0.00457136207122642
10376.0,0.011606852319217034
10380.0,-0.02229270104342358
10384.0,-0.0608630991736977
10388.0,-0.01419927280848051
10392.0,0.0014114793518863388
10396.0,0.02724732879825395
10400.0,0.09955591620483831
10404.0,0.009184359788959179
10408.0,0.00450670254630325
10412.0,0.0237467644403454
10416.0,-0.016132585476458565
10420.0,-0.008463497742929961
10424.0,0.002878523325966984
10428.0,-0.07732115629845804
10432.0,-0.03794965272247827
10436.0,-0.011967510099755491
10440.0,-0.03148174207835617
10444.0,0.06269259705340809
10448.0,0.08396488248964235
10452.0,-0.00823899861224037
10456.0,-0.03734744819728118
10460.0,-0.03401571648066179
10464.0,-0.11039694102013553
10468.0,0.05134765390783035
10472.0,-0.0005163148016160105
10476.0,-0.021846012957022466
10480.0,0.03229159702207642
10484.0,-0.005633030640988471
10488.0,-0.04121478448785793
10492.0,-0.09428424691261061
10496.0,0.012448311486020365
10500.0,0.0196483559749298
10504.0,-0.11809806760946957
10508.0,0.019015214665519795
10512.0,-0.0733102312063399
10516.0,-0.008311108882644094
10520.0,0.010795022006559445
10524.0,0.0015017058158295783
10528.0,0.029640168641687732
10532.0,0.06631343204689423
10536.0,0.07978335224403442
10540.0,-0.02484216303471045
10544.0,-0.029872960276542477
10548.0,0.0018244720774915684
10552.0,0.009043091622022617
10556.0,-0.015245129945050196
10560.0,0.003414623403257086
10564.0,-0.01707920857371457
10568.0,0.05897792043558821
10572.0,-0.11209095677501209
10576.0,-0.06434710933253081
10580.0,-0.08511479747440384
10584.0,-0.08844695278478952
10588.0,-0.026250702768537235
10592.0,0.2193821076357646
10596.0,0.3963129842817492
10600.0,0.5605252821314264
10604.0,0.7850218063979177
10608.0,1.0003609195024943
10612.0,0.8614053538859845
10616.0,0.6245791030262821
10620.0,0.4392278707548693
10624.0,0.2179665674106451
10628.0,0.07611099308087715
10632.0,-0.08834067322953282
10636.0,-0.1758772614682851
10640.0,-0.26539362898348035
10644.0,-0.24927077353724567
10648.0,-0.20728874692879065
10652.0,-0.19603040922783685
10656.0,-0.14044444709992707
10660.0,0.01138356196781135
10664.0,-0.030495142099423108
10668.0,-0.05900118873699714
10672.0,-0.006525389199838196
10676.0,0.038033324736451934
10680.0,0.02698564439603271
10684.0,-0.050907779113233825
10688.0,-0.022325778543904825
10692.0,-0.031190478892768776
10696.0,-0.03235490422020484
10700.0,-0.001686572711716294
10704.0,0.011596601839686293
10708.0,-0.0017100492965279154
10712.0,-0.0030007129007314703
10716.0,0.07211918746269141
10720.0,-0.03333872775943049
10724.0,-0.0743439611926353
10728.0,0.08741252972934656
10732.0,-0.08041459014851865
10736.0,0.05315054023428356
10740.0,-0.01973940006527492
10744.0,0.023895571311782094
10748.0,0.07090179116605631
10752.0,-0.004504006669131686
10756.0,-0.06093871286157085
10760.0,-0.024763187891701947
10764.0,-0.012593958776350481
10768.0,0.06070463127965317
10772.0,-0.0006554423281782684
10776.0,0.08407498679450333
10780.0,0.11965553126701518
10784.0,0.11924593174223004
10788.0,0.1618723200705403
10792.0,0.17815251520171804
10796.0,0.15936933636772962
10800.0,0.24960451549870438
10804.0,0.26291834779030415
10808.0,0.19276362586408696
10812.0,0.2598508927266871
10816.0,0.21769086477898247
10820.0,0.29085029282227276
10824.0,0.3538657356902919
10828.0,0.29846444225457663
10832.0,0.35181359477604107
10836.0,0.23487753254556598
10840.0,0.18809345183241766
10844.0,0.19951136209496656
10848.0,0.2745575618483136
10852.0,0.23036380102379758
10856.0,0.12280847764919495
10860.0,0.23250409590845283
10864.0,0.16504024747917032
10868.0,0.08862482471164917
10872.0,0.0728392316071539
10876.0,0.11219411639817772
10880.0,0.09955235020103032
10884.0,0.01361815135413114
10888.0,0.028411586895488977
10892.0,-0.07654101236551339
10896.0,0.05714610971814546
10900.0,-0.03745142654660813
10904.0,0.03161183486238641
10908.0,0.02477524955768245
10912.0,0.013289094219477132
10916.0,-0.05582133666353739
10920.0,0.06445691888383442
10924.0,0.08294300740025068
10928.0,-0.017748063687822096
10932.0,-0.050705952956707295
10936.0,-0.06546490852317365
10940.0,0.12899462707660742
10944.0,-0.04244667764306782
10948.0,-0.006317699932194039
10952.0,0.10216486936216858
10956.0,-0.0020594710039336106
10960.0,0.02858777312831899
10964.0,0.012219505302137088
10968.0,-0.0013876095514394
10972.0,-0.06573861858584905
10976.0,-0.02784964946254528
10980.0,-0.01083957575935751
10984.0,-0.0022948996196053657
10988.0,0.05177597107694905
10992.0,0.017182051091625218
10996.0,0.028511693475144137
11000.0,0.05435678325050613
11004.0,0.04569431392972221
11008.0,0.07248046045054436
11012.0,0.03854812970935503
11016.0,-0.01077166590764477
11020.0,0.020650279131447322
11024.0,-0.028931850634979273
11028.0,0.04956235780618536
11032.0,-0.013932412545562142
11036.0,0.015899591212049632
11040.0,0.01844664793850297
11044.0,0.042648276523616406
11048.0,0.020159435874887957
11052.0,-0.0005694552291882518
11056.0,0.03266326946964367
11060.0,0.1268414164662883
11064.0,0.011487344319639343
11068.0,0.022233650879652733
11072.0,0.003759444218026972
11076.0,-0.1293587044450839
11080.0,-0.14256343066027416
11084.0,-0.11746964461862619
11088.0,0.04728887185921929
11092.0,0.2484831284904983
11096.0,0.3476040567709221
11100.0,0.6154838892801364
11104.0,0.7551659756447454
11108.0,0.98834363677418
11112.0,0.7762109172408705
11116.0,0.5232619604457914
11120.0,0.40746534256167694
11124.0,0.20832352134177146
11128.0,-0.030623123542824277
11132.0,-0.04178770676121853
11136.0,-0.09576750215748936
11140.0,-0.23519945417509128
11144.0,-0.30663159761423836
11148.0,-0.23746701519566818
11152.0,-0.23035378817321006
11156.0,-0.00741678665008888
11160.0,0.09023589605006471
11164.0,-0.035286721146575016
11168.0,-0.014005711697320547
11172.0,-0.023048017061499657
11176.0,0.04238705368901192
11180.0,0.0757210055534917
11184.0,0.0010621675562618956
11188.0,0.00944642309476071
11192.0,0.02761414306667693
11196.0,-0.11021136960078524
11200.0,0.07265171009720546
11204.0,0.044943079347182585
11208.0,-0.043125892585797944
11212.0,-0.018300258407462723
11216.0,-0.03135732669523277
11220.0,-0.013403552456309113
11224.0,0.044589289976542316
11228.0,-0.024931611243767554
11232.0,0.04861311315724486
11236.0,0.06514963109995883
11240.0,-0.021797774546099415
11244.0,-0.03745198862453847
11248.0,-0.027601016387213045
11252.0,0.0707973281022823
11256.0,0.0743671939184758
11260.0,0.047110892259338316
11264.0,0.07109204013448958
11268.0,0.005096377059067331
11272.0,0.08504355442435527
11276.0,0.09493705325512561
11280.0,0.12449262767330402
11284.0,0.05234724627301682
11288.0,0.07938632160773955
11292.0,0.26472860931720665
11296.0,0.16086800238289992
11300.0,0.2550851220958804
11304.0,0.2246882276885844
11308.0,0.27609999841853816
11312.0,0.23647946297597838
11316.0,0.2903490580464099
11320.0,0.3048405164907843
11324.0,0.40516539327319134
11328.0,0.25884725332448605
11332.0,0.27797358759442226
11336.0,0.31882340003001264
11340.0,0.3935505600066806
11344.0,0.32295507714480043
11348.0,0.24131288471578147
11352.0,0.2134364183513993
11356.0,0.1484558215808362
11360.0,0.19467006034257064
11364.0,0.20392202923425934
11368.0,0.15729881698421716
11372.0,0.12176607087162396
11376.0,0.0652886180960073
11380.0,0.013642313668283161
11384.0,0.03310370953173587
11388.0,0.0012555459645448785
11392.0,0.04496974558367947
11396.0,-0.057775880901439425
11400.0,0.11886887335199797
11404.0,-0.0635171497925909
11408.0,0.03254760458336884
11412.0,0.0445363160789608
11416.0,0.06103464328680024
11420.0,0.012287404342088137
11424.0,0.011297543452992706
11428.0,-0.050995501502255375
11432.0,-0.02361714829088915
11436.0,-0.024877846189221085
11440.0,-0.004469779602569917
11444.0,0.027296978653168037
11448.0,0.07440125488480123
11452.0,-0.01985799753752557
11456.0,-0.0073751466340616694
11460.0,0.030795377766394058
11464.0,-0.009772896216002606
11468.0,-0.035895747104741964
11472.0,0.034767319943612984
11476.0,0.008730557822303526
11480.0,0.127572537260704
11484.0,0.033134361288288026
11488.0,-0.013034652754694544
11492.0,0.003472152976676313
11496.0,0.07489638138734268
11500.0,0.03551583702867881
11504.0,0.05337702858977483
11508.0,-0.08000870691645806
11512.0,-0.030720370626665456
11516.0,0.06787653110610058
11520.0,0.023145767576937638
11524.0,0.0003139439421763821
11528.0,-0.0471352375501764
11532.0,0.0180094532986978
11536.0,-0.10661484189547765
11540.0,-0.08579267811712216
11544.0,0.08770823048171013
11548.0,0.032281098001661436
11552.0,0.02698013659469639
11556.0,-0.02284824908234813
11560.0,0.05987265328201208
11564.0,-0.007355083757709398
11568.0,-0.0564634232995538
11572.0,0.01244640429295863
11576.0,-0.08892539520551501
11580.0,-0.08865324297961713
11584.0,-0.14298973354801692
11588.0,-0.001112537946519167
11592.0,0.19861929233506428
11596.0,0.39131574707358785
11600.0,0.531057440647963
11604.0,0.7230707651562043
11608.0,1.0173629212541553
11612.0,0.8197799411620355
11616.0,0.5023174757811649
11620.0,0.4295619108599946
11624.0,0.18368669315267744
11628.0,-0.051910105352823956
11632.0,-0.10592435121610858
11636.0,-0.07710012772756462
11640.0,-0.2520134833240545
11644.0,-0.2906801076068429
11648.0,-0.2786297886356754
11652.0,-0.12762710383140993
11656.0,-0.06252481345252073
11660.0,0.017097530939231467
11664.0,-0.04747155124776778
11668.0,-0.004726990258615071
11672.0,0.005985179072824485
11676.0,0.007388669125076505
11680.0,0.07918205863595176
11684.0,0.021572103075678407
11688.0,-0.10672370096490297
11692.0,0.005291438117558976
11696.0,0.0586281105426375
11700.0,0.06876112499326555
11704.0,0.036033419707586604
11708.0,-0.0546557919512382
11712.0,0.0741383529674557
11716.0,-0.0016704741303380623
11720.0,0.03729330567647197
11724.0,0.018759616156625886
11728.0,0.030724142814726636
11732.0,-0.03191275540303463
11736.0,0.03168504768553086
11740.0,0.03387596347119453
11744.0,-0.07107927846477913
11748.0,0.04028597461720129
11752.0,-0.04876270392850491
11756.0,-0.0004503650085670769
11760.0,-0.10216857324877585
11764.0,0.018453981949147196
11768.0,0.04265557419837093
11772.0,-0.015260221001261204
11776.0,0.11459834896510071
11780.0,0.045087604442295724
11784.0,0.19476804128205794
11788.0,0.13275732976563187
11792.0,0.1863146510506874
11796.0,0.15771914601645384
11800.0,0.24891906411890083
11804.0,0.286374424298197
11808.0,0.2993441854477741
11812.0,0.3587755107996976
11816.0,0.3100339513693369
11820.0,0.21815003018021473
11824.0,0.252464560010231
11828.0,0.35091554300156985
11832.0,0.3374227348429112
11836.0,0.25643282060866435
11840.0,0.23970100754433796
11844.0,0.25447738238977907
11848.0,0.2702298446507193
11852.0,0.13102856532963458
11856.0,0.19543207302709925
11860.0,0.17616853920999268
11864.0,0.12547586287727128
11868.0,-0.003950664191390507
11872.0,0.2001429598179521
11876.0,0.0763354481928725
11880.0,0.027897723322039457
11884.0,0.037971786357947866
11888.0,-0.027348909349458623
11892.0,0.10584430178114775
11896.0,0.07344331114595844
11900.0,0.07066804705506938
11904.0,0.04103849070370434
11908.0,-0.023097355194599406
11912.0,-0.012186007040837105
11916.0,0.0117550436415122
11920.0,0.00835200962612622
11924.0,0.08879005781798258
11928.0,-0.010287322768581388
11932.0,0.00725043665370699
11936.0,0.02417362381355998
11940.0,0.02333867454475123
11944.0,0.03666629832907913
11948.0,-0.011728354916567436
11952.0,0.028163127399580476
11956.0,-0.02345543053247882
11960.0,0.018587938616827095
11964.0,0.021825439616521156
11968.0,-0.029496138330061563
11972.0,-0.013097911918823455
11976.0,0.03338612908646745
11980.0,-0.050180326148898995
11984.0,-0.07038442897879874
11988.0,-0.019586305321600397
11992.0,0.06684807038418508
11996.0,0.040003808627687404
12000.0,0.04258240699545547
12004.0,-0.019580253103068337
12008.0,-0.07797087500114824
12012.0,0.04081346352080918
12016.0,-0.04489418314787463
12020.0,-0.12234483733663798
12024.0,-0.06624370382646347
12028.0,-0.1297385537843012
12032.0,-0.029956668688670713
12036.0,0.14474186668500386
12040.0,0.479592724001199
12044.0,0.6714842186015039
12048.0,0.7735930584345044
12052.0,0.9711995655802714
12056.0,0.7909856219896318
12060.0,0.6016488214991527
12064.0,0.453515271532849
12068.0,0.2094316259099427
12072.0,0.04437971478254688
12076.0,0.08672683262221322
12080.0,-0.10073350002036471
12084.0,-0.15758883005664714
12088.0,-0.38066904821523695
12092.0,-0.2422616929651681
12096.0,-0.12313037729276084
12100.0,-0.06325867029160358
12104.0,-0.010584674641878653
12108.0,0.08188202961090058
12112.0,0.06268910616457966
12116.0,0.11905707535216024
12120.0,0.018349021672996582
12124.0,-0.017648850826630723
12128.0,-0.018774971831538385
12132.0,-0.034555694467558996
12136.0,0.1041594975863047
12140.0,0.08451332285816528
12144.0,-0.04714816893781057
12148.0,0.009215206540737687
12152.0,-0.06316435328921678
12156.0,-0.023574001605167608
12160.0,-0.09666307509519703
12164.0,0.03885816143176785
12168.0,0.019721847610287533
12172.0,-0.08326880315734882
12176.0,-0.0692818470574995
12180.0,-0.0051508105664430865
12184.0,0.05141320615526978
12188.0,-0.015097839700663314
12192.0,-0.0683755267905856
12196.0,-0.0971378235047981
12200.0,-0.012408466256426186
12204.0,-0.0064080139782127085
12208.0,0.024732683882323706
12212.0,0.07986277022747708
12216.0,0.006235173154975883
12220.0,0.08485191368896161
12224.0,0.04655604775259005
12228.0,0.13454064736838717
12232.0,0.07995226501748277
12236.0,0.2173161115476428
12240.0,0.31013012594949724
12244.0,0.275274289154687
12248.0,0.3026053237562613
12252.0,0.33181534068474805
12256.0,0.22072597382275963
12260.0,0.24243771168058767
12264.0,0.19659080217625252
12268.0,0.29633817628859577
12272.0,0.21912805169434701
12276.0,0.23990213152985146
12280.0,0.2637822072063868
12284.0,0.4053425470648655
12288.0,0.32072570858818783
12292.0,0.2564125367672301
12296.0,0.19325965883256643
12300.0,0.3085633383617128
12304.0,0.18448043571023612
12308.0,0.18425341147761862
12312.0,0.09694112542659011
12316.0,0.09785163219175022
12320.0,0.05596244085807126
12324.0,0.06380520589526101
12328.0,0.017455871209521787
12332.0,0.04775717321142034
12336.0,0.09270190964149733
12340.0,0.022123485039290992
12344.0,-0.017154150909337775
12348.0,0.07088642974411186
12352.0,0.08877187768246307
12356.0,-0.06497296168961603
12360.0,-0.03971780381737609
12364.0,-0.05907074772541642
12368.0,0.04114634221439548
12372.0,0.01272952490176029
12376.0,0.019387229708987614
12380.0,-0.07019676384799753
12384.0,0.03291625857393853
12388.0,-0.01877775095982821
12392.0,0.030107292243342784
12396.0,-0.07164700425834791
12400.0,0.00026316344615030183
12404.0,0.03954718368894361
12408.0,-0.0016686134425636771
12412.0,-0.009633375804608178
12416.0,-0.10629529906383171
12420.0,0.029482528181837955
12424.0,0.009465174726969137
12428.0,-0.014413848056221932
12432.0,0.07445126059701689
12436.0,0.010547093259209404
12440.0,0.0691902719255851
12444.0,-0.04121385276791376
12448.0,-0.0656288066425727
12452.0,-0.03458917694024787
12456.0,0.003342208485939933
12460.0,-0.05688545630076776
12464.0,-0.02380575136391771
12468.0,0.04850237449745715
12472.0,0.1278096443415623
12476.0,0.045789719719911026
12480.0,-0.04005454124649029
12484.0,0.052533752161710814
12488.0,0.007144768071311725
12492.0,0.0006742461741536006
12496.0,0.006027366864272257
12500.0,-0.007658481040862905
12504.0,0.02311931707300398
12508.0,0.029116195999683483
12512.0,-0.011453378474104145
12516.0,0.008232125417337104
12520.0,-0.0046247905500863854
12524.0,0.046535530900703774
12528.0,0.031121723580932625
12532.0,-0.0033815330739808344
12536.0,0.06853047163540481
12540.0,-0.03465943486816613
12544.0,-0.06766065926805896
12548.0,-0.016915656447006055
12552.0,0.007872066543387169
12556.0,0.029585151503659913
12560.0,-0.02659033407522801
12564.0,-0.004071060025413734
12568.0,0.021148542332108042
12572.0,0.02844011876832749
12576.0,0.09850695830433667
12580.0,-0.025681178674727995
12584.0,-0.038257376067163805
12588.0,0.029024656082071727
12592.0,-0.09373187013735017
12596.0,0.009889978136276557
12600.0,0.08221033753422789
12604.0,-0.0010720320524778037
12608.0,-0.06414217411427924
12612.0,0.02982079539408656
12616.0,0.033235693870787335
12620.0,-0.009194851408131073
12624.0,0.05374146716026697
12628.0,-0.02629202826453681
12632.0,-0.12185349123394636
12636.0,0.023154661088092842
12640.0,-0.01084025371507427
12644.0,0.02601308854247424
12648.0,-0.1038799423392865
12652.0,0.033324323123394804
12656.0,-0.024518479703063135
12660.0,0.022257651128167123
12664.0,0.025825750482463362
12668.0,-0.02345299886412497
12672.0,-0.05567408478201677
12676.0,0.029094184618619706
12680.0,0.04171468466604152
12684.0,-0.010400244911181179
12688.0,-0.06590316476240414
12692.0,-0.04806424738820536
12696.0,-0.07290182518972546
12700.0,0.0006078456626296584
12704.0,0.08543310652339951
12708.0,-0.00043821807069873147
12712.0,0.05713465936848078
12716.0,0.054938632909615974
12720.0,-0.09840047378919303
12724.0,0.036507688848690045
12728.0,-0.014408513726823738
12732.0,-0.09405788500615615
12736.0,-0.2067931024652593
12740.0,0.017591967724782467
12744.0,0.2630783353432658
12748.0,0.4000946054702758
12752.0,0.6949829192832941
12756.0,0.7758912633166217
12760.0,0.973170366933001
12764.0,0.761994995210111
12768.0,0.6744193859241893
12772.0,0.3569002843311294
12776.0,0.172118249767408
12780.0,-0.01641361924936466
12784.0,-0.17722267553440052
12788.0,-0.15231574819866
12792.0,-0.24497112398794724
12796.0,-0.2850427825832138
12800.0,-0.19487250977190226
12804.0,-0.1467153504826741
12808.0,-0.07139612082928357
12812.0,-0.04436933713195223
12816.0,0.01650804952655954
12820.0,0.025182376523745477
12824.0,-0.057121194096736355
12828.0,-0.057525556898176206
12832.0,-0.06698248243479744
12836.0,0.012937746333022321
12840.0,0.05284522401932484
12844.0,-0.0370403827033289
12848.0,-0.038581769675990564
12852.0,-0.11493600688087231
12856.0,-0.03949821400660794
12860.0,-0.009516899198645125
12864.0,-0.015631368368482265
12868.0,-0.04727600615407997
12872.0,-0.003828808415250981
12876.0,-0.014610382335355549
12880.0,-0.018504563716998403
12884.0,-3.143430710507239e-06
12888.0,-0.07529599147035976
12892.0,0.0717197606998941
12896.0,-0.02216741154906156
12900.0,-0.058478373092749114
12904.0,0.06415072290522354
12908.0,0.07048322438583131
12912.0,-0.006541722972276383
12916.0,-0.11905283625820345
12920.0,0.0036954933736347405
12924.0,0.08599654421217612
12928.0,0.11654199100571726
12932.0,0.14764071337606344
12936.0,0.07814159672722387
12940.0,0.12460984870289418
12944.0,0.17347515684989828
12948.0,0.19457350642033086
12952.0,0.21552964499301744
12956.0,0.3050068537558252
12960.0,0.18752143529318321
12964.0,0.2956042396692043
12968.0,0.343337230018733
12972.0,0.3507316808936869
12976.0,0.30184518497172497
12980.0,0.31960260581991906
12984.0,0.3010157823070165
12988.0,0.28144579662016045
12992.0,0.28978814219704974
12996.0,0.2289310049956002
13000.0,0.23853474625382257
13004.0,0.2791634205998565
13008.0,0.15451276527605834
13012.0,0.1883768727399838
13016.0,0.19071400559045093
13020.0,0.0837140341572995
13024.0,0.1313122165235454
13028.0,0.1413320878333
13032.0,0.053458177239659545
13036.0,0.07195691453941179
13040.0,-0.018275259701176046
13044.0,-0.06263656541398203
13048.0,0.029231235169691297
13052.0,-0.0547308268973893
13056.0,-0.0644881884547596
13060.0,0.06514533682279472
13064.0,0.0003311988740343436
13068.0,-0.09254183522579373
13072.0,0.08270887886165684
13076.0,-0.04553477927751565
13080.0,0.008895015502638106
13084.0,-0.01757269276689292
13088.0,0.02835010009772093
13092.0,-0.058243504840631066
13096.0,-0.07133629121474626
13100.0,-0.010773837010457053
13104.0,0.03558912849200428
13108.0,0.015270536875280783
13112.0,0.08015818520565177
13116.0,0.04583212683835004
13120.0,-0.06729548236977721
13124.0,-0.03314158720003793
13128.0,0.03844705728720193
13132.0,-0.062476331056090365
13136.0,0.06596291333929986
13140.0,-0.03162938359246738
13144.0,0.01312570718086164
13148.0,-0.11080139775048575
13152.0,0.15098205534563808
13156.0,0.05657984952867127
13160.0,0.00428248265507579
13164.0,0.04313485919760398
13168.0,0.04218468563655358
13172.0,-0.05387177413688754
13176.0,-0.0016367037751152044
13180.0,-0.15633845325858367
13184.0,-0.08113426970590071
13188.0,-0.15524507544248028
13192.0,-0.16764763899820853
13196.0,-0.037809634989807085
13200.0,0.2132720938261227
13204.0,0.4390689950579663
13208.0,0.6984623726398616
13212.0,0.8519793995535206
13216.0,0.9612575667036394
13220.0,0.8216427708560456
13224.0,0.6706185362676915
13228.0,0.3435486274131292
13232.0,0.2877791635654121
13236.0,0.024023020675357883
13240.0,-0.0498812176657214
13244.0,-0.19491978824130754
13248.0,-0.2669708404969363
13252.0,-0.3204222466435896
13256.0,-0.2562884425909774
13260.0,-0.1921269998524769
13264.0,-0.1300953787975747
13268.0,-0.09492012536174976
13272.0,-0.016064784453146567
13276.0,-0.04944133199442548
13280.0,0.026899128003618284
13284.0,0.03062375833515381
13288.0,-0.03140211465389747
13292.0,0.10732959858338514
13296.0,-0.029510416726173383
13300.0,-0.004459788335230921
13304.0,-0.0010871916203030257
13308.0,0.10140871442627285
13312.0,0.01970699454345271
13316.0,-0.008176127100556804
13320.0,-0.019280670522175445
13324.0,-0.01821708797618317
13328.0,0.08975249974315797
13332.0,0.0045541218213734904
13336.0,0.053904900308065475
13340.0,-0.049757208635043994
13344.0,-0.07760404387747534
13348.0,-0.08254468380932391
13352.0,-0.021970934310847935
13356.0,-0.04498454578743105
13360.0,-0.011830642544629339
13364.0,0.052123856481693015
13368.0,0.060322184039931906
13372.0,0.01495072721938953
13376.0,-0.0491037229457427
13380.0,0.08378811900745811
13384.0,0.12610392400447262
13388.0,0.11532390254576178
13392.0,0.10416656458307386
13396.0,0.11819177629664795
13400.0,0.10702830793700986
13404.0,0.21618282289477558
13408.0,0.20826193145376654
13412.0,0.2515697272314175
13416.0,0.22454841623297656
13420.0,0.27764784014302396
13424.0,0.22921222692804505
13428.0,0.36906840846357036
13432.0,0.32046532388999216
13436.0,0.2038559454678146
13440.0,0.22648333286011138
13444.0,0.2713274285111043
13448.0,0.2886510508539809
13452.0,0.319609613015418
13456.0,0.2443832250417123
13460.0,0.06642344570344877
13464.0,0.2885165490242543
13468.0,0.19517529537639047
13472.0,0.16824053862742946
13476.0,0.2171937570894364
13480.0,0.12410179470282262
13484.0,0.13379373400443723
13488.0,0.036928518536102115
13492.0,0.014665533098895872
13496.0,0.007260578203065413
13500.0,0.08686766940123716
13504.0,0.0006970949607143786
13508.0,0.019196972008964766
13512.0,-0.06417309715094209
13516.0,-0.033453767607275475
13520.0,-0.008787677511338746
13524.0,-0.0014695413344068882
13528.0,-0.005839060454694747
13532.0,-0.019544426927154086
13536.0,0.0785160046998783
13540.0,-0.051793407174137995
13544.0,-0.08826125276915996
13548.0,0.037907114454219584
13552.0,-0.04640362963807532
13556.0,-0.0040438351946507165
13560.0,0.0006590436458207332
13564.0,0.01741762496029081
13568.0,0.09407370103600252
13572.0,-0.003753327738891886
13576.0,0.03760139583643038
13580.0,-0.04440817937381109
13584.0,-0.017795186123599004
13588.0,-0.05942561246422452
13592.0,-0.033086484238967186
13596.0,-0.007088404780996038
13600.0,0.06643732854196896
13604.0,0.022471827959556195
13608.0,-0.023123480141677782
13612.0,-0.061562983293161545
13616.0,-0.04894256434195223
13620.0,-0.03233028904080263
13624.0,-0.0006176875350725887
13628.0,0.052457365040173176
13632.0,0.02807094651947168
13636.0,-0.08001115164837197
13640.0,-0.0432936187856646
13644.0,0.03522837312449353
13648.0,-0.07763033435626981
13652.0,-0.09761140615711042
13656.0,-0.08269634948488346
13660.0,0.0055082918129103825
13664.0,-0.12424579752064822
13668.0,-0.04940900852134042
13672.0,-0.00327864009706823
13676.0,-0.010558445721346623
13680.0,0.00781908492042924
13684.0,-0.004386155611247326
13688.0,-0.09382849736539586
13692.0,-0.05613690492451068
13696.0,-0.1546143626135704
13700.0,0.03246955572941768
13704.0,0.16894265777392503
13708.0,0.3526470422507253
13712.0,0.5832654929565548
13716.0,0.7957689865257731
13720.0,0.9980166582657732
13724.0,0.7441338743835888
13728.0,0.5391430106341966
13732.0,0.32113685969293926
13736.0,0.21404289514702532
13740.0,0.017498959735427613
13744.0,-0.018778262816919702
13748.0,-0.21268171344600256
13752.0,-0.25506529123193916
13756.0,-0.34435143622379616
13760.0,-0.2918451318572967
13764.0,-0.13747476590396404
13768.0,-0.09731965603056092
13772.0,0.05567422487226972
13776.0,0.045452023819300566
13780.0,0.04835094449836126
13784.0,-0.030831731125227097
13788.0,0.00024185911430872842
13792.0,0.02526474530538448
13796.0,0.04559568952673645
13800.0,-0.0077787834665914955
13804.0,-0.10039052908148888
13808.0,-0.0327378849044187
13812.0,0.04320773473355405
13816.0,-0.043235290485517476
13820.0,0.03148296241683355
13824.0,0.07817403467702211
13828.0,-0.07018674526361247
13832.0,0.06131922552903357
13836.0,-0.03654588803263828
13840.0,0.007864118992720643
13844.0,-0.07968793804783117
13848.0,-0.025983742368915298
13852.0,-0.014771527148756554
13856.0,-0.06446005467796145
13860.0,0.030624079969499396
13864.0,0.021758918566371445
13868.0,0.013778942933496434
13872.0,-0.07334309481677213
13876.0,-0.053056380914379364
13880.0,-0.03460852728240401
13884.0,-0.034203163521614795
13888.0,-0.031235536136283687
13892.0,0.027582794206752068
13896.0,0.1660166290382254
13900.0,0.17495127037534644
13904.0,0.18332537051085637
13908.0,0.19658859206391535
13912.0,0.08081776077220867
13916.0,0.18742190023400135
13920.0,0.23800954216103032
13924.0,0.24436540863564937
13928.0,0.24456819016619116
13932.0,0.23423973508596982
13936.0,0.2762318375359115
13940.0,0.2839258304469044
13944.0,0.33040276989516687
13948.0,0.2291342394166046
13952.0,0.26615742230999523
13956.0,0.24725231213394652
13960.0,0.2989242252055596
13964.0,0.2684257412861789
13968.0,0.19656585506650287
13972.0,0.24668641562889382
13976.0,0.16144677728680115
13980.0,0.13184844463301298
13984.0,0.13824856247400596
13988.0,0.014642420717816157
13992.0,0.057807580205566325
13996.0,0.1454449186042308
14000.0,-0.015196919538375656
14004.0,0.09346171827182631
14008.0,0.08145294874521747
14012.0,-0.015210094816833964
14016.0,0.022980061933238476
14020.0,-0.03268070387024684
14024.0,-0.010044633930440458
14028.0,-0.013941952107038661
14032.0,-0.025717418825175732
14036.0,-0.015270864252089011
14040.0,-0.002171885286238138
14044.0,0.04395765808514458
14048.0,-0.004506023550072107
14052.0,-0.07986120894161933
14056.0,-0.14079942533310205
14060.0,0.01930448286035731
14064.0,0.0739506528164384
14068.0,-0.002750672790333707
14072.0,-0.030277160879127397
14076.0,0.06794249777069918
14080.0,0.10717158270106085
14084.0,-0.061168439404916286
14088.0,-0.07335331224013251
14092.0,-0.024933619225322542
14096.0,0.0293577426465857
14100.0,-0.004382691236827427
14104.0,-0.005083110480389125
14108.0,-0.053440263477765565
14112.0,-0.07230205225231356
14116.0,0.05693013108884825
14120.0,-0.003890097233438503
14124.0,0.06463218999364424
14128.0,-0.0368746251819668
14132.0,-0.05032075419032481
14136.0,0.06189865716036518
14140.0,0.006787392066668774
14144.0,-0.04499733957607484
14148.0,0.05324771597232813
14152.0,0.055058323134211454
14156.0,0.050060134069010435
14160.0,-0.030023333813190126
14164.0,-0.03198886136771679
14168.0,0.041765200794430045
14172.0,0.05137400990212763
14176.0,0.042770176449435565
14180.0,0.10826180479870401
14184.0,-0.03120783320422668
14188.0,-0.03463996986568584
14192.0,-0.06510289455370113
14196.0,0.010686519681686971
14200.0,-0.009516558104839631
14204.0,0.015855448004851353
14208.0,0.021465664726077603
14212.0,0.017569732736331622
14216.0,-0.048004020757415285
14220.0,0.020178636661936422
14224.0,0.027779953052746366
14228.0,0.022760460983306714
14232.0,-0.013554216446449191
14236.0,-0.103217259520058
14240.0,0.0021537150617551184
14244.0,0.0423802435340952
14248.0,-0.04873887686461361
14252.0,-0.059445212820730835
14256.0,-0.06938586702715487
14260.0,0.05108587465677325
14264.0,-0.03164300807725014
14268.0,0.0006900145202734344
14272.0,0.011190860667508459
14276.0,0.09154947205658566
14280.0,0.012562380820545227
14284.0,0.018631797162220624
14288.0,0.09750443559639915
14292.0,0.03755079285290866
14296.0,0.011419713207902242
14300.0,-0.0014388930137231503
14304.0,-0.005763636149618845
14308.0,-0.025063039633670067
14312.0,0.11499211231877185
14316.0,-0.057934198153575124
14320.0,0.035705772642410975
14324.0,-0.021502379269848295
14328.0,-0.07767914039259162
14332.0,0.002808008190027038
14336.0,-0.051471436514382435
14340.0,0.06089608558103679
14344.0,0.03937241202189084
14348.0,0.10764845565487609
14352.0,0.0023119231754808478
14356.0,0.09913880350331683
14360.0,0.010333151792568294
14364.0,-0.0635235022333649
14368.0,-0.13096461422824837
14372.0,-0.18800168364069675
14376.0,0.060583644098997524
14380.0,0.20493793892506992
14384.0,0.36665043580885953
14388.0,0.6261815620929191
14392.0,0.774182668779725
14396.0,0.9768593510515593
14400.0,0.8405619379087347
14404.0,0.6519518054758444
14408.0,0.39128742061401217
14412.0,0.19002657315074842
14416.0,-0.010202986252010118
14420.0,-0.07652710574651647
14424.0,-0.13211466167882222
14428.0,-0.16224942676099766
14432.0,-0.281927320892727
14436.0,-0.17590086983903128
14440.0,-0.16245959207114144
14444.0,-0.025768495539738347
14448.0,0.0055646981751353046
14452.0,0.07366493710883106
14456.0,-0.03950596045229455
14460.0,0.007109389840763531
14464.0,-0.005265334904351632
14468.0,-0.012556766156313376
14472.0,-0.04269975822242944
14476.0,0.01508869778967801
14480.0,-0.05516111069769594
14484.0,0.002639154182590858
14488.0,0.019013139754875213
14492.0,0.17871860982651772
14496.0,-0.03273790448393229
14500.0,0.06403809595920788
14504.0,-0.0073049319550460845
14508.0,0.05942910568450352
14512.0,-0.03726220118261289
14516.0,-0.011280577923392002
14520.0,0.042150381622429824
14524.0,-0.03249884783205005
14528.0,0.025589143319081204
14532.0,-0.06828424985546638
14536.0,-0.024068847653600626
14540.0,0.011175756323157413
14544.0,-0.07899071866213375
14548.0,0.08376857313187669
14552.0,0.005733549697805919
14556.0,-0.04385290525999006
14560.0,-0.01814007074232163
14564.0,0.06862904013284436
14568.0,0.023475669474893185
14572.0,0.13955440510902087
14576.0,0.1319692722485552
14580.0,0.14914490247389495
14584.0,0.24854016436905246
14588.0,0.1731492498737512
14592.0,0.2621441227076426
14596.0,0.2692887738117769
14600.0,0.1256915453036739
14604.0,0.25264865316534074
14608.0,0.2762432534072998
14612.0,0.24626819467955213
14616.0,0.29319965343147475
14620.0,0.2972967559586051
14624.0,0.2910468922114192
14628.0,0.20243110553415203
14632.0,0.2702608760136055
14636.0,0.2797792848716234
14640.0,0.1894264579470902
14644.0,0.23662358541995868
14648.0,0.22456460841678416
14652.0,0.09928337977773213
14656.0,0.14651273093698142
14660.0,0.07673535868298907
14664.0,0.10696688313562712
14668.0,0.07066165569609065
14672.0,-0.07581748156519826
14676.0,0.019958310913303128
14680.0,0.05166703658196939
14684.0,0.03758055191504994
14688.0,-0.026055538723484362
14692.0,0.0071003211588810886
14696.0,0.027780953304676892
14700.0,-0.0402008382839549
14704.0,-0.005104589323634421
14708.0,-0.00806002529357769
14712.0,0.03562786881884755
14716.0,0.06772808366348863
14720.0,0.040555943269210165
14724.0,0.03749112890158157
14728.0,-0.0759181269926938
14732.0,0.061160441226122825
14736.0,0.11508929869016438
14740.0,-0.05343162546791707
14744.0,0.05315565530352298
14748.0,0.05311660709628311
14752.0,0.019210308004834836
14756.0,0.02593050103955835
14760.0,-0.0065402002840072825
14764.0,0.035919126801232
14768.0,-0.05232822472264659
14772.0,0.02955211134628462
14776.0,-0.007314653895801661
14780.0,0.07945829255457824
14784.0,0.03501456208576025
14788.0,-0.010298926053171554
14792.0,-0.003633718210394921
14796.0,0.018994062849115076
14800.0,-0.05313879809846709
14804.0,-0.018726975765062628
14808.0,-0.030708385112819137
14812.0,0.031326219016420125
14816.0,0.04624350393398243
14820.0,0.07432785732494543
14824.0,0.016029489400377
14828.0,0.08390201933172799
14832.0,-0.0327131689615312
14836.0,-0.018691522130337118
14840.0,0.01707664910269453
14844.0,-0.03424233344259807
14848.0,0.05898800181633279
14852.0,-0.019549387295737807
14856.0,0.013108833731551299
14860.0,-0.025526759961195855
14864.0,-0.016130799750923193
14868.0,0.03340960498694808
14872.0,-0.07117579019738794
14876.0,-0.023924603826887988
14880.0,-0.07897083856781147
14884.0,-0.028454687481089754
14888.0,0.037680191604679454
14892.0,0.04632435267785598
14896.0,-0.15595322289722854
14900.0,-0.029882312485914293
14904.0,-0.010750852545810912
14908.0,0.06795394426376361
14912.0,0.07035606759334422
14916.0,-0.01846757224029145
14920.0,0.0072664526965158975
14924.0,-0.04685044511771782
14928.0,-0.022344970635611014
14932.0,0.07193685964288875
14936.0,0.005454037305377526
14940.0,-0.015029465080402841
14944.0,0.06019564693958954
14948.0,-0.040281559989850196
14952.0,-0.05670012946257644
14956.0,0.033219335578778146
14960.0,-0.021744325614600876
14964.0,-0.031202158328744276
14968.0,-0.06693686489062638
14972.0,0.015600209137085748
14976.0,-0.03149123006262741
14980.0,0.0017984384231743333
14984.0,0.023319634498580266
14988.0,-0.08011120432814008
14992.0,0.10637242185129632
14996.0,-0.02303305487256678
15000.0,0.10470057462485652
15004.0,0.06456691695928506
15008.0,-0.006864329753179014
15012.0,0.1321113609308076
15016.0,-0.03671711800176591
15020.0,-0.027212155539148748
15024.0,0.004072901061759316
15028.0,0.041537859884980884
15032.0,0.09037356995106591
15036.0,0.017836794266083922
15040.0,-0.05342717709253744
15044.0,-0.003845307175223134
15048.0,-0.06111097021506061
15052.0,0.02586862521961607
15056.0,0.1807554428355235
15060.0,0.44689532871051213
15064.0,0.6378882547814
15068.0,0.8487980577412341
15072.0,0.9641334550777039
15076.0,0.9249397595047978
15080.0,0.5630213305814668
15084.0,0.4113985726751901
15088.0,0.15899738882362766
15092.0,-0.010125464893674416
15096.0,-0.042349492216392844
15100.0,-0.2098351608653488
15104.0,-0.16728359472318066
15108.0,-0.3169667451249
15112.0,-0.3140693734297254
15116.0,-0.11719806923119239
15120.0,-0.03033828779289347
15124.0,-0.014100602834587915
15128.0,0.02183839305275101
15132.0,-0.048888724960962054
15136.0,0.08185971818248039
15140.0,-0.006607550847793395
15144.0,0.03210226479807385
15148.0,-1.4052843479330083e-05
15152.0,-0.04780552754223805
15156.0,0.05942787954333106
15160.0,-0.04848647810789191
15164.0,-0.06272738022523054
15168.0,0.025377302823454507
15172.0,0.06358503482728207
15176.0,-0.07340681345150539
15180.0,0.01929163549913935
15184.0,-0.01842304999698843
15188.0,0.016274143358517464
15192.0,0.022974458505476414
15196.0,-0.06521601879576783
15200.0,-0.035644528905290254
15204.0,-0.07629488980056293
15208.0,-0.04899355261647414
15212.0,-0.03107836601577938
15216.0,-0.0049760731411902315
15220.0,-0.08541355730208544
15224.0,-0.15718024323906793
15228.0,0.0585194209084746
15232.0,-0.004758180500430623
15236.0,0.013929528081260995
15240.0,0.04088639743547459
15244.0,0.06962683668864107
15248.0,0.1698742020427411
15252.0,0.2034288325042446
15256.0,0.19433484562598294
15260.0,0.1831007226298243
15264.0,0.3058609260208583
15268.0,0.29931754140123434
15272.0,0.30095355605551366
15276.0,0.23443238877886363
15280.0,0.27519960169884444
15284.0,0.35467521398536844
15288.0,0.3934428793779533
15292.0,0.3510319448808324
15296.0,0.23229975854259066
15300.0,0.35133163138034207
15304.0,0.23128625159891875
15308.0,0.25968979769292266
15312.0,0.2581188350725246
15316.0,0.26464862905201764
15320.0,0.20979361400051547
15324.0,0.12373625966380916
15328.0,0.1263109201192652
15332.0,0.14851691969629452
15336.0,0.08725185438544517
15340.0,0.15649580625580334
15344.0,0.13667141691823895
15348.0,0.04389008066361652
15352.0,0.041806656346619495
15356.0,-0.00888767853672793
15360.0,0.046963480153915334
15364.0,0.048013972149468225
15368.0,0.027733322787082376
15372.0,-0.03225489985586583
15376.0,-0.0046245935878890245
15380.0,0.011080800417135373
15384.0,-0.019229533348162058
15388.0,-0.0524574029642195
15392.0,-0.005868854822474179
15396.0,-0.052400256204007546
15400.0,0.010901909326058007
15404.0,0.060510374278188
15408.0,0.009629985096012338
15412.0,-0.00398315933862556
15416.0,-0.03045177370279317
15420.0,-0.07067193117900243
15424.0,0.06457673161336545
15428.0,-0.06718999433597925
15432.0,-0.037244349461975766
15436.0,-0.014265883669829692
15440.0,0.005348460193003878
15444.0,-0.02918801034861121
15448.0,-0.030544797762952214
15452.0,0.010573370992999303
15456.0,-0.04038995934641203
15460.0,0.02941542231700191
15464.0,-0.031597805783324065
15468.0,0.026978761992806872
15472.0,-0.04455993763975056
15476.0,0.07525147323015166
15480.0,-0.007827282588856887
15484.0,-0.05180918627554631
15488.0,-0.024107831454139125
15492.0,0.006562431098793323
15496.0,-0.0019711705322253198
15500.0,-0.00826325666968611
15504.0,-0.004590982671949214
15508.0,0.03310764101196208
15512.0,0.06284944331418851
15516.0,0.1122926194885118
15520.0,-0.0073578769163143405
15524.0,-0.10168370308315222
15528.0,-0.02093435510859898
15532.0,-0.004194128426309846
15536.0,-0.004424605097738616
15540.0,-0.02586850549032928
15544.0,-0.05020953136792971
15548.0,0.031535350209603734
15552.0,-0.05914747903239777
15556.0,-0.010574107804680415
15560.0,-0.011854974359134587
15564.0,0.01007372079646969
15568.0,-0.055407168372679776
15572.0,-0.006508699546598904
15576.0,0.007101950102432701
15580.0,-0.03332436157225449
15584.0,-0.029505149598247477
15588.0,-0.04502003594184009
15592.0,-0.037795953784554574
15596.0,0.07153625858683597
15600.0,-0.010484247456316811
15604.0,-0.03472813468366556
15608.0,-0.018731457458335876
15612.0,0.07228378682984217
15616.0,0.13407453742631095
15620.0,-0.10716277833622044
15624.0,-0.013648143323729081
15628.0,0.02397535282856675
15632.0,-0.00804392186819705
15636.0,-0.021196257346464343
15640.0,0.06262923257103307
15644.0,-0.042979489663634185
15648.0,0.023237815055725645
15652.0,0.002926528776296031
15656.0,-0.04268101748853367
15660.0,-0.06452131473724203
15664.0,0.012415790302090368
15668.0,-0.0020274995411439017
15672.0,0.005589164527010912
15676.0,-0.00624776145684193
15680.0,0.09543772568080615
15684.0,0.03285750349536952
15688.0,0.004456285408436517
15692.0,-0.03874756749240208
15696.0,0.0011998835699004908
15700.0,-0.02357056019560578
15704.0,0.020079935364720115
15708.0,0.049924771625428924
15712.0,0.01566238708474375
15716.0,-0.05453178950864196
15720.0,-0.0009309967867201336
15724.0,-0.05830597166743756
15728.0,-0.041427810236183464
15732.0,-0.06254646891227256
15736.0,-0.0010330394674955016
15740.0,-0.07370753767947608
15744.0,-0.02681399230642964
15748.0,-0.03350025519858241
15752.0,-0.17653068407357822
15756.0,0.00948897359022787
15760.0,0.19633341426808282
15764.0,0.39416947733252594
15768.0,0.6123389947729486
15772.0,0.7276771752324105
15776.0,0.9907373925088309
15780.0,0.767604315920566
15784.0,0.620379778354622
15788.0,0.4249532998883446
15792.0,0.2167858821974211
15796.0,0.019016755069137917
15800.0,-0.05659604424884016
15804.0,-0.0987687164001329
15808.0,-0.2683546284352252
15812.0,-0.312753462191748
15816.0,-0.2586432902803385
15820.0,-0.11192131016748386
15824.0,-0.08811704735020955
15828.0,-0.052605870077047735
15832.0,0.1359695492172368
15836.0,0.025771263094478136
15840.0,0.04056265445923891
15844.0,0.04977511837943631
15848.0,0.006008555945912806
15852.0,-0.04299863901480527
15856.0,0.034026446378781876
15860.0,-0.017496723710413865
15864.0,0.0126573459128739
15868.0,-0.026463830848148108
15872.0,-0.07867174949208233
15876.0,0.07809183241344189
15880.0,-0.018021320175218944
15884.0,-0.11580843492578996
15888.0,-0.04373294740240349
15892.0,-0.019401213439435665
15896.0,0.12416997153969078
15900.0,0.014262514563208026
15904.0,-0.040942480158428045
15908.0,0.12234159331689909
15912.0,0.0756674890867605
15916.0,0.018363020462505483
15920.0,0.04537288793949619
15924.0,-0.00901820533733644
15928.0,0.04047509264316081
15932.0,-0.051066646287026535
15936.0,-0.04140305860678215
15940.0,0.10469909130322211
15944.0,0.048232045974985795
15948.0,0.1451647324572793
15952.0,0.22463911944559278
15956.0,0.1857879147948801
15960.0,0.1212054577804609
15964.0,0.19468611892399246
15968.0,0.2028694226236377
15972.0,0.31350729059910143
15976.0,0.29720932844925224
15980.0,0.2353032482623359
15984.0,0.3281475535630403
15988.0,0.22929624659998676
15992.0,0.3694618715672807
15996.0,0.35342089063188886
16000.0,0.18987201680468985
16004.0,0.36800235455833064
16008.0,0.3306518402984711
16012.0,0.21516014318313173
16016.0,0.3025686919501588
16020.0,0.2916083657912225
16024.0,0.26553586299225107
16028.0,0.23715307122355794
16032.0,0.11355852031604155
16036.0,0.12845882249942042
16040.0,0.06977481557113353
16044.0,0.06800958352837522
16048.0,0.051803194932506604
16052.0,0.047669814807209235
16056.0,0.0004728993199434973
16060.0,-0.053492546088615825
16064.0,-0.003601786724305029
16068.0,-0.010845572763389934
16072.0,0.10905172472084526
16076.0,0.023102898220613524
16080.0,-0.02537202080132985
16084.0,-0.03503662337527314
16088.0,0.10891812152198517
16092.0,-0.014054298129281897
16096.0,0.06512801004035425
16100.0,-0.007867988534020246
16104.0,-0.027074419621056663
16108.0,-0.07518944260720443
16112.0,0.005500557447742822
16116.0,-0.03814458904848089
16120.0,-0.00020473722527316717
16124.0,-0.053037562286585696
16128.0,0.1173744398561534
16132.0,-0.01786217215486954
16136.0,0.10073033068331537
16140.0,0.019015630611269152
16144.0,-0.042980922583073955
16148.0,0.010367062476326657
16152.0,0.011817973900394442
16156.0,-0.05120981633667972
16160.0,0.04641877517899521
16164.0,0.08200480403551587
16168.0,-0.07055670384913602
16172.0,0.03344252044883272
16176.0,0.008252527643887925
16180.0,-0.06227922761534807
16184.0,0.003109663643546666
16188.0,0.10081108167508444
16192.0,0.0049272152409319415
16196.0,-0.056548890916613775
16200.0,-0.01745068186814996
16204.0,0.08963431974714131
16208.0,-0.0005467968855771477
16212.0,0.005497107169593585
16216.0,0.12455448707401978
16220.0,0.04360294810979968
16224.0,-0.05152513097472149
16228.0,-0.06893270054930996
16232.0,0.014981404613403798
16236.0,-0.01856042527073166
16240.0,-0.09869690666414233
16244.0,0.017521417324465337
16248.0,0.033251651007792336
16252.0,-0.0011486754728906013
16256.0,0.026177611123417863
16260.0,-0.010228822301507338
16264.0,-0.06340896305179422
16268.0,-0.07502941089034361
16272.0,0.018531426141373906
16276.0,0.0653288740773504
16280.0,-0.011530485203030773
16284.0,0.015320819744244304
16288.0,0.060306064498549174
16292.0,0.14263156663313145
16296.0,-0.06742216618682235
16300.0,-0.05451338868384035
16304.0,-0.0028926241494346035
16308.0,-0.04653448970531988
16312.0,0.008021630326431998
16316.0,-0.06444267418049655
16320.0,0.03731215417521115
16324.0,-0.04505162922357761
16328.0,-0.09088685787051672
16332.0,-0.1024326527187377
16336.0,-0.03413946148787414
16340.0,-0.15686840566995813
16344.0,-0.09180124788617587
16348.0,-0.06673732891159352
16352.0,0.17515098222786837
16356.0,0.39709525777649146
16360.0,0.6351514668616443
16364.0,0.7798265251991703
16368.0,0.967223307952973
16372.0,0.7157745700099891
16376.0,0.6539053632303119
16380.0,0.3879638528590361
16384.0,0.23310524186509834
16388.0,-0.06893696833946915
16392.0,-0.10978404830510796
16396.0,-0.1953067842471753
16400.0,-0.1762485422060114
16404.0,-0.26988854287001
16408.0,-0.2466312446393918
16412.0,-0.07091391969074916
16416.0,-0.12529867450670207
16420.0,-0.004198652532064802
16424.0,-0.022559962130123675
16428.0,0.12409439457922383
16432.0,0.03485457214613961
16436.0,-0.08476251804152857
16440.0,-0.08135582303083723
16444.0,-0.01047696311389742
16448.0,-0.009714700226553526
16452.0,0.03786152436805153
16456.0,0.026565686375196625
16460.0,-0.1254527024484151
16464.0,-0.05818768350076689
16468.0,0.07409009697267592
16472.0,-0.00611393742558655
16476.0,0.0196650844501795
16480.0,-0.017273977947442464
16484.0,-0.0231290338041622
16488.0,-0.07792883650478771
16492.0,-0.0784730379700936
16496.0,0.05353889116220681
16500.0,0.06364513057097138
16504.0,0.0116696954086324
16508.0,0.04247683119511106
16512.0,-0.008341725737007618
16516.0,-0.058069094517289234
16520.0,0.03319567943137428
16524.0,0.021783418636475288
16528.0,-0.09221272652975393
16532.0,-0.06287549814167473
16536.0,0.11424277716863629
16540.0,0.12864126460290515
16544.0,0.1104567514642287
16548.0,0.06378851484264943
16552.0,0.20930730477646164
16556.0,0.27236560258290016
16560.0,0.211076501315669
16564.0,0.2843865091100124
16568.0,0.23154114112361368
16572.0,0.315197998705077
16576.0,0.24988337486346868
16580.0,0.3930162289820823
16584.0,0.2769667517455071
16588.0,0.25567993002234257
16592.0,0.31942223002826337
16596.0,0.38464342395083817
16600.0,0.2239019748923017
16604.0,0.27218788264005894
16608.0,0.3792393687372386
16612.0,0.16860261288279604
16616.0,0.21284704979914232
16620.0,0.18585378670711614
16624.0,0.2525780138072619
16628.0,0.16951129483835442
16632.0,0.015339858124377631
16636.0,0.015643170846773663
16640.0,-0.02018695907896502
16644.0,0.08691799050996349
16648.0,0.024781764191084632
16652.0,0.066018952953744
16656.0,-0.09212979104721575
16660.0,0.008204247693237748
16664.0,-0.008551611226259762
16668.0,0.043500203331875736
16672.0,-0.0666038265697637
16676.0,-0.021023691359463154
16680.0,-0.07119663479303028
16684.0,-0.028589187873131278
16688.0,0.04283162032081964
16692.0,-0.05837643834742434
16696.0,0.000969534140416991
16700.0,-0.06807011684600776
16704.0,0.03179686540524102
16708.0,-0.03547094700069464
16712.0,-0.03309855803399371
16716.0,0.033244961464311225
16720.0,-0.004154591997905194
16724.0,-0.041114079814093284
16728.0,0.11644630131985334
16732.0,-0.01635971730924661
16736.0,-0.024657716713578748
16740.0,0.06904569994544008
16744.0,0.03774972259943023
16748.0,0.07204921777958122
16752.0,0.012548543552720332
16756.0,0.0251811321123827
16760.0,-0.028712872016937886
16764.0,0.05458669208330783
16768.0,-0.005088937410805385
16772.0,-0.01122371734470145
16776.0,0.0411808593364299
16780.0,-0.03897160343883507
16784.0,-0.0649915234173749
16788.0,0.021022979099602532
16792.0,-0.01772143290745888
16796.0,-0.02740352406606583
16800.0,-0.006877658243014513
16804.0,-0.030821820554687098
16808.0,0.07047348478764513
16812.0,-0.04136389427613033
16816.0,0.10001367188858841
16820.0,0.02053361258256172
16824.0,0.03812836267560246
16828.0,0.048730689559346944
16832.0,-0.09751488819952298
16836.0,0.036932261181860736
16840.0,0.02261257198747685
16844.0,-0.011425598815418733
16848.0,0.050033361836910206
16852.0,-0.03341405100795874
16856.0,-0.06758762554748529
16860.0,-0.027585041343534795
16864.0,-0.07309442157032084
16868.0,6.0683526416998125e-06
16872.0,-0.008398339608166307
16876.0,-0.1344530816235774
16880.0,-0.13847625536182945
16884.0,-0.2554171080667389
16888.0,0.0052598879613223
16892.0,0.2700498324027634
16896.0,0.4008502671230182
16900.0,0.6084080108702223
16904.0,0.7325718457609804
16908.0,0.9793343655099793
16912.0,0.8004772318596418
16916.0,0.6350086735324896
16920.0,0.48933164750977337
16924.0,0.20422594539678351
16928.0,-0.005934036399548449
16932.0,-0.09082130693194591
16936.0,-0.20025458083840533
16940.0,-0.1628888136409578
16944.0,-0.3420314207756273
16948.0,-0.19402304612465368
16952.0,-0.1803637774146757
16956.0,-0.06233968925820416
16960.0,0.00998880579350709
16964.0,-0.019474228360655002
16968.0,-0.012441951270909404
16972.0,-0.004347114077919475
16976.0,-0.028298642543914967
16980.0,-0.038629118477090996
16984.0,0.042233524070753294
16988.0,0.0348227749673658
16992.0,0.08195017631443907
16996.0,0.022573577532407494
17000.0,0.024910018419437022
17004.0,0.022001968181976986
17008.0,0.0911588910158031
17012.0,-0.004726292233378135
17016.0,0.06879762243752217
17020.0,-0.019576344574997972
17024.0,0.009096065703433076
17028.0,-0.06745340495164662
17032.0,-0.007916854337847215
17036.0,0.07757719767674959
17040.0,0.013726770168839603
17044.0,0.023483617419035208
17048.0,0.0763457920415821
17052.0,-0.05419681852023165
17056.0,-0.03211555983031047
17060.0,0.015600271300551576
17064.0,0.012488902214270712
17068.0,0.016578693924635575
17072.0,0.016029813027820083
17076.0,-0.00419189402903232
17080.0,0.1219692323789549
17084.0,0.14443905257130898
17088.0,0.21152023684004184
17092.0,0.21145162685758276
17096.0,0.1228798079585722
17100.0,0.16702876076458212
17104.0,0.19782788876372334
17108.0,0.2509772387523551
17112.0,0.2209199019578647
17116.0,0.2675671918548671
17120.0,0.27690862138864025
17124.0,0.29663416850688584
17128.0,0.26748752247434515
17132.0,0.2709373291814154
17136.0,0.32925745228142217
17140.0,0.35277386872538863
17144.0,0.30016389955263223
17148.0,0.21442490553017396
17152.0,0.28070982829839525
17156.0,0.2197953998665702
17160.0,0.17581710967532044
17164.0,0.17764505782421494
17168.0,0.21724323378565574
17172.0,0.13699258149482985
17176.0,0.13457043582470632
17180.0,0.031924827456595764
17184.0,0.006671808289067431
