time,value
0.0,0.0
4.0,0.0
8.0,0.0
12.0,0.0
16.0,0.0
20.0,0.0
24.0,0.0
28.0,0.0
32.0,0.0
36.0,0.0
40.0,0.0
44.0,0.0
48.0,0.0
52.0,0.0
56.0,0.0
60.0,0.0
64.0,0.0
68.0,0.0
72.0,0.0
76.0,0.0
80.0,0.0
84.0,0.0
88.0,0.0
92.0,0.0
96.0,0.0
100.0,0.0
104.0,0.0
108.0,0.0
112.0,0.0
116.0,0.0
120.0,0.0
124.0,0.0
128.0,0.0
132.0,0.0
136.0,0.0
140.0,0.0
144.0,0.0
148.0,0.0
152.0,0.0
156.0,0.0
160.0,0.0
164.0,0.0
168.0,0.0
172.0,0.0
176.0,0.0
180.0,0.0
184.0,0.0
188.0,0.0
192.0,0.0
196.0,0.0
200.0,0.0
204.0,0.0
208.0,0.0
212.0,0.0
216.0,0.0
220.0,0.0
224.0,0.0
228.0,0.0
232.0,0.0
236.0,0.0
240.0,0.0
244.0,0.0
248.0,0.0
252.0,0.0
256.0,0.0
260.0,0.0
264.0,0.0
268.0,0.0
272.0,0.0
276.0,0.0
280.0,0.0
284.0,0.0
288.0,0.0
292.0,0.0
296.0,0.0
300.0,0.0
304.0,0.0
308.0,0.0
312.0,0.0
316.0,0.0
320.0,0.0
324.0,0.0
328.0,0.0
332.0,0.0
336.0,0.0
340.0,0.0
344.0,0.0
348.0,0.0
352.0,0.0
356.0,0.0
360.0,0.0
364.0,0.0
368.0,0.0
372.0,0.0
376.0,0.0
380.0,0.0
384.0,0.0
388.0,0.0
392.0,0.0
396.0,0.0
400.0,0.0
404.0,0.0
408.0,0.0
412.0,0.0
416.0,0.0
420.0,0.0
424.0,0.0
428.0,0.0
432.0,0.0
436.0,0.0
440.0,0.0
444.0,0.0
448.0,0.0
452.0,0.0
456.0,0.0
460.0,0.0
464.0,0.0
468.0,0.0
472.0,0.0
476.0,0.0
480.0,0.0
484.0,0.0
488.0,0.0
492.0,0.0
496.0,0.0
500.0,0.010194771437878681
504.0,0.011708501977721837
508.0,-0.001240807556597678
512.0,-0.006637211156478575
516.0,0.011520130671972521
520.0,0.0122894680369039
524.0,-0.009404619340289952
528.0,0.015797398842171167
532.0,0.014057614047314882
536.0,0.014974068951117157
540.0,-0.021186305651221135
544.0,0.04172140520902578
548.0,0.05192594008842556
552.0,0.1062024030071131
556.0,0.10516251112638719
560.0,0.14679734600014974
564.0,0.14763459931774164
568.0,0.18953764759377834
572.0,0.19716438141669906
576.0,0.19795554814852295
580.0,0.19371188975764994
584.0,0.1958157746770854
588.0,0.18867742328642806
592.0,0.1588288812326955
596.0,0.15943078810765574
600.0,0.13012850667663312
604.0,0.1187358954474058
608.0,0.09202796412049874
612.0,0.060566538317194205
616.0,0.03225164823493936
620.0,-0.0002955536036935255
624.0,-0.01014301296649059
628.0,0.01062743266979159
632.0,-0.009734582394296068
636.0,0.0027095808149211636
640.0,-0.006764258280632878
644.0,0.013967232020192167
648.0,-0.010913648543640247
652.0,-0.0003056084519158607
656.0,0.013762480768037844
660.0,0.0015489821086847402
664.0,-0.0035557148711140053
668.0,-0.0009264325113683466
672.0,-0.006449615680788857
676.0,0.0012174940360529653
680.0,0.0193905984501401
684.0,-0.0001857487346396742
688.0,0.016349309643085612
692.0,-0.008530664746662316
696.0,0.008719875287423308
700.0,0.010175161080355266
704.0,-0.03202116849250821
708.0,-0.07866517294381914
712.0,-0.11118393453314132
716.0,-0.16005438653174717
720.0,0.01348098572667345
724.0,0.21074964689663533
728.0,0.41003729776334324
732.0,0.5941445069955078
736.0,0.8080398755181343
740.0,0.9852245008144358
744.0,0.7908365463483417
748.0,0.5775013025589713
752.0,0.3972817613977934
756.0,0.18520140426347476
760.0,0.016844473915541038
764.0,-0.07053289598339645
768.0,-0.16042698176923814
772.0,-0.2190983039734881
776.0,-0.2897225060899991
780.0,-0.21398811331616707
784.0,-0.15551417561997713
788.0,-0.07600878695575501
792.0,0.0007683932562829543
796.0,-0.008550380580585989
800.0,-0.009640414489407613
804.0,-0.00012594447559032852
808.0,0.0005906360066297157
812.0,0.004105043768954067
816.0,0.0046011545226739645
820.0,-0.0011553377671946763
824.0,-0.0034581594724955225
828.0,0.0007071252264609218
832.0,0.0057572126665816235
836.0,0.004806920064769413
840.0,-0.014110453020975229
844.0,-0.009035546570136032
848.0,0.0020399679420853665
852.0,0.007586473828760173
856.0,0.00785482608023133
860.0,-0.01008018255610623
864.0,0.011250296484667098
868.0,-0.011859705244796171
872.0,0.002231219900932757
876.0,0.0016956720978001663
880.0,-0.025846376784530133
884.0,-0.008590781809400512
888.0,-0.0027963465701893713
892.0,0.010353419345895468
896.0,0.012837658549497848
900.0,-0.004639346637691845
904.0,0.03493044510758886
908.0,0.06203961322478296
912.0,0.08811695509139489
916.0,0.13356255181350463
920.0,0.15542234341086386
924.0,0.18200001588847853
928.0,0.2035619202299667
932.0,0.22065684389105086
936.0,0.23506861242003363
940.0,0.25694923264283576
944.0,0.27547492956988545
948.0,0.2911661805891865
952.0,0.27996904614964074
956.0,0.2979382884667354
960.0,0.31459397307011283
964.0,0.2915876021764834
968.0,0.315738083887716
972.0,0.29746534066863045
976.0,0.26734974110706317
980.0,0.006046207348568751
984.0,-0.00581512162430091
988.0,-0.004455837291054077
992.0,0.011167951303144182
996.0,-0.004003867051228955
1000.0,-0.00868870859852214
1004.0,0.0009948101705150748
1008.0,0.003696683341555367
1012.0,-0.004378362751528391
1016.0,-0.005156925289687251
1020.0,0.0005093035630393257
1024.0,0.035953404427141074
1028.0,0.04644745976694625
1032.0,0.08590916078786248
1036.0,0.11740545679130937
1040.0,0.12821967308609553
1044.0,0.15207084567763507
1048.0,0.195303409982243
1052.0,0.1707414431139457
1056.0,0.19536201148036875
1060.0,0.20273404995225547
1064.0,0.18702858287570545
1068.0,0.19478623147552776
1072.0,0.19130748336972048
1076.0,0.17605048431038206
1080.0,0.13777364319647264
1084.0,0.12645714103333794
1088.0,0.10605372468895789
1092.0,0.05423406849233046
1096.0,0.02348164226942849
1100.0,0.007180029084138996
1104.0,-0.003986329093779035
1108.0,0.005096001258324024
1112.0,-0.018671683183674175
1116.0,0.015755666150309017
1120.0,0.003624646084613882
1124.0,-0.00934755881279521
1128.0,-0.009888439868345165
1132.0,-0.008611292239355601
1136.0,-0.013337658436539467
1140.0,-0.007583359841375995
1144.0,-0.009905093697907371
1148.0,0.014166409901086726
1152.0,-0.00817151631457248
1156.0,-0.018932912820100293
1160.0,-0.007969505309037448
1164.0,0.019830416555792815
1168.0,-0.013052381323805592
1172.0,0.015115917748230678
1176.0,-0.00857069824127487
1180.0,0.02358691667944079
1184.0,-0.040572694122967136
1188.0,-0.073035916862951
1192.0,-0.10612492454742736
1196.0,-0.16206228232574263
1200.0,0.002299096233306107
1204.0,0.20263109385555927
1208.0,0.4073110676219202
1212.0,0.597327162507531
1216.0,0.8012693043812972
1220.0,0.9862329324616828
1224.0,0.8081714825271625
1228.0,0.5948179482566803
1232.0,0.4011799847390542
1236.0,0.20577858077328198
1240.0,-0.0034406099788536733
1244.0,-0.09092524122554457
1248.0,-0.13998484927437188
1252.0,-0.2293988694297445
1256.0,-0.3059208257616526
1260.0,-0.21766576499503495
1264.0,-0.149338729321904
1268.0,-0.10099552284767477
1272.0,0.003105751111442993
1276.0,-0.026092930441165684
1280.0,0.01969159367733297
1284.0,-0.012798454118049609
1288.0,-0.00479390657498332
1292.0,-0.016400497205035107
1296.0,0.006394926866945832
1300.0,0.008881181923905275
1304.0,0.014556752629974405
1308.0,-0.0062092009128467745
1312.0,0.013586660561244433
1316.0,0.017010762709713797
1320.0,-0.003482962105888585
1324.0,0.02171054446780388
1328.0,0.00010179206365042939
1332.0,0.0030592891805344704
1336.0,0.014680800064387753
1340.0,0.007581783128717599
1344.0,0.00236573885529766
1348.0,-0.000703672314980166
1352.0,0.011151684178293675
1356.0,0.00781654136655688
1360.0,-0.005112258822966004
1364.0,-0.011100328844210576
1368.0,-0.010593862341817584
1372.0,0.007918472091525568
1376.0,0.012665381728385793
1380.0,0.004957913000295749
1384.0,0.029176758699030608
1388.0,0.07731966139981943
1392.0,0.07910118753014972
1396.0,0.12314602236576469
1400.0,0.15903144171234612
1404.0,0.15771843825257348
1408.0,0.199719850709169
1412.0,0.20582954462645756
1416.0,0.25290057231549357
1420.0,0.26973949000914693
1424.0,0.2870170215356449
1428.0,0.28886689151104966
1432.0,0.2895737589292233
1436.0,0.2878355961671833
1440.0,0.30868307978986076
1444.0,0.2983161600559276
1448.0,0.27881573469048326
1452.0,0.2867696819107257
1456.0,0.2618810989543847
1460.0,0.26434805025033725
1464.0,0.24696963042989256
1468.0,0.21290665249544447
1472.0,0.2016584124051895
1476.0,0.1943349545378006
1480.0,0.1687611824632433
1484.0,0.1173220357143152
1488.0,0.08532700957997862
1492.0,0.07200308551106707
1496.0,0.022331395798321708
1500.0,-0.008948606670365476
1504.0,-0.00831226214494691
1508.0,0.01875975270595946
1512.0,-0.004469898337197269
1516.0,0.009211938551231168
1520.0,-0.002610763972051596
1524.0,0.003867608492354417
1528.0,-0.01040441475055708
1532.0,0.002396376029239404
1536.0,0.0014890878763894571
1540.0,0.0034332745996174647
1544.0,0.0005974274681753468
1548.0,-0.00383920329444634
1552.0,-0.008944771222659223
1556.0,-0.010993520302886212
1560.0,-0.0005011972415458599
1564.0,0.0009846578669162607
1568.0,-0.017818108540530772
1572.0,-0.004607785024963456
1576.0,-0.00756565095080299
1580.0,0.0
1584.0,0.0
1588.0,0.0
1592.0,0.0
1596.0,0.0
1600.0,0.0
1604.0,0.0
1608.0,0.0
1612.0,0.0
1616.0,0.0
1620.0,0.0
1624.0,0.0
1628.0,0.0
1632.0,0.0
1636.0,0.0
1640.0,0.0
1644.0,0.0
1648.0,0.0
1652.0,0.0
1656.0,0.0
1660.0,0.0
1664.0,0.0
1668.0,0.0
1672.0,0.0
1676.0,0.0
1680.0,0.0
1684.0,0.0
1688.0,0.0
1692.0,0.0
1696.0,0.0
1700.0,0.0
1704.0,0.0
1708.0,0.0
1712.0,0.0
1716.0,0.0
1720.0,0.0
1724.0,0.0
1728.0,0.0
1732.0,0.0
1736.0,0.0
1740.0,0.0
1744.0,0.0
1748.0,0.0
1752.0,0.0
1756.0,0.0
1760.0,0.0
1764.0,0.0
1768.0,0.0
1772.0,0.0
1776.0,0.0
1780.0,0.0
1784.0,0.0
1788.0,0.0
1792.0,0.0
1796.0,0.0
1800.0,0.0
1804.0,0.0
1808.0,0.0
1812.0,0.0
1816.0,0.0
1820.0,0.0
1824.0,0.0
1828.0,0.0
1832.0,0.0
1836.0,0.0
1840.0,0.0
1844.0,0.0
1848.0,0.0
1852.0,0.0
1856.0,0.0
1860.0,0.0
1864.0,0.0
1868.0,0.0
1872.0,0.0
1876.0,0.0
1880.0,0.0
1884.0,0.0
1888.0,0.0
1892.0,0.0
1896.0,0.0
1900.0,0.0
1904.0,0.0
1908.0,0.0
1912.0,0.0
1916.0,0.0
1920.0,0.0
1924.0,0.0
1928.0,0.0
1932.0,0.0
1936.0,0.0
1940.0,0.0
1944.0,0.0
1948.0,0.0
1952.0,0.0
1956.0,0.0
1960.0,0.0
1964.0,0.0
1968.0,0.0
1972.0,0.0
1976.0,0.0
1980.0,0.0
1984.0,0.0
1988.0,0.0
1992.0,0.0
1996.0,0.0
2000.0,0.0
2004.0,0.0
2008.0,0.0
2012.0,0.0
2016.0,0.0
2020.0,0.0
2024.0,0.0
2028.0,0.0
2032.0,0.0
2036.0,0.0
2040.0,0.0
2044.0,0.0
2048.0,0.0
2052.0,0.0
2056.0,0.0
2060.0,0.0
2064.0,0.0
2068.0,0.0
2072.0,0.0
2076.0,0.0
2080.0,0.0
2084.0,0.0
2088.0,0.0
2092.0,0.0
2096.0,0.0
2100.0,0.0
2104.0,0.0
2108.0,0.0
2112.0,0.0
2116.0,0.0
2120.0,0.0
2124.0,0.0
2128.0,0.0
2132.0,0.0
2136.0,0.0
2140.0,0.0
2144.0,0.0
2148.0,0.0
2152.0,0.0
2156.0,0.0
2160.0,0.0
2164.0,0.0
2168.0,0.0
2172.0,0.0
2176.0,0.0
2180.0,0.00983854040657575
2184.0,0.011689902198234124
2188.0,-0.01100284787134447
2192.0,-0.004699714531810462
2196.0,-0.0002593367684415496
2200.0,0.010928211241158343
2204.0,0.017490906564806032
2208.0,-0.024491463021660664
2212.0,0.0010251078187194847
2216.0,-0.007104144615241236
2220.0,0.0016585986861366872
2224.0,0.054116644121284675
2228.0,0.06413793508085264
2232.0,0.10600349372472864
2236.0,0.10440827639698201
2240.0,0.15450344761662552
2244.0,0.1590065732068817
2248.0,0.17075412944008253
2252.0,0.19216492495076443
2256.0,0.18120037843666692
2260.0,0.1950891364761841
2264.0,0.19307403468228274
2268.0,0.18309259336170644
2272.0,0.1816918849648771
2276.0,0.16163530941524334
2280.0,0.14325308326500932
2284.0,0.1401659445252909
2288.0,0.09526401657379922
2292.0,0.06798241090461521
2296.0,0.032913253214378026
2300.0,-0.004314864226855721
2304.0,-0.008792453472755452
2308.0,-0.02076817466014335
2312.0,-0.024518348062588555
2316.0,-0.00508057722713513
2320.0,0.0056450269926242485
2324.0,0.0014313581698588518
2328.0,0.029727669531144335
2332.0,0.01063389633227307
2336.0,-0.0033281683400410056
2340.0,0.0008935657191121439
2344.0,-0.016563333958821667
2348.0,-0.0013650363589677343
2352.0,0.008336965037612318
2356.0,0.011831810194905638
2360.0,-0.00433814319751018
2364.0,-0.01842902961220252
2368.0,-0.003931203305438776
2372.0,0.0012798835130594275
2376.0,0.007993466586615872
2380.0,-0.0182431928539363
2384.0,-0.0374691201567043
2388.0,-0.07202115186683145
2392.0,-0.12096332158179256
2396.0,-0.15284227685963425
2400.0,0.004074396554695131
2404.0,0.20708446594121047
2408.0,0.3976447406869267
2412.0,0.605449202490965
2416.0,0.8199470067464836
2420.0,1.005465815014096
2424.0,0.7946174782075126
2428.0,0.6023832618436045
2432.0,0.38801433569026994
2436.0,0.20690662612657412
2440.0,0.0034073004451769294
2444.0,-0.07196480737983894
2448.0,-0.14097736283214846
2452.0,-0.20633612735681123
2456.0,-0.2926899921933155
2460.0,-0.23670966100517649
2464.0,-0.15697724745342154
2468.0,-0.07638644840219297
2472.0,0.007307865849213881
2476.0,0.0023040767577260177
2480.0,-0.012678466721583997
2484.0,-0.005304031237856491
2488.0,-0.00605451688143171
2492.0,-0.005115247178281441
2496.0,-0.016167305310533658
2500.0,0.007411576596315698
2504.0,0.00045735613051181323
2508.0,-0.006313089311031493
2512.0,-0.012137198190897093
2516.0,-0.01271376896184373
2520.0,-0.0012169090350074565
2524.0,0.005124317761480824
2528.0,0.009478739520552691
2532.0,0.02322097273862492
2536.0,-0.002311265132847807
2540.0,0.02149868505857059
2544.0,-0.0023495915563085867
2548.0,-0.00668525251478038
2552.0,-0.006982830020027919
2556.0,0.012197860874939544
2560.0,-0.010796598700694125
2564.0,-0.012570520807617702
2568.0,-0.0007273878067435454
2572.0,0.0011138661827355407
2576.0,-0.006775584676285429
2580.0,0.009206843932641413
2584.0,0.02490744575087578
2588.0,0.05455304081556553
2592.0,0.07947565094665848
2596.0,0.13098454597400394
2600.0,0.14326683785549835
2604.0,0.1772081408285224
2608.0,0.2197784763912571
2612.0,0.20264189687661152
2616.0,0.253918805657777
2620.0,0.26899679011350885
2624.0,0.26879161651547023
2628.0,0.28794916530340714
2632.0,0.2947434622685975
2636.0,0.30074505593899703
2640.0,0.2867481481790861
2644.0,0.3037571749266165
2648.0,0.30227085253003916
2652.0,0.2913749941027565
2656.0,0.2738630370857073
2660.0,0.25140045900268226
2664.0,0.252793019361305
2668.0,0.23081270758068176
2672.0,0.20617282691933728
2676.0,0.17926277626955986
2680.0,0.1454772077354609
2684.0,0.13527719595031917
2688.0,0.0968435386364569
2692.0,0.057756001771753565
2696.0,0.04017325729290888
2700.0,0.021541615336197747
2704.0,0.010859880248191716
2708.0,0.0034593114662136155
2712.0,-0.01191791542299076
2716.0,-0.005425677891825479
2720.0,0.003972371605653015
2724.0,0.0034057043269610336
2728.0,0.0017197604924121482
2732.0,-0.001931609518222988
2736.0,0.00554160398773017
2740.0,-0.009692812273410501
2744.0,-0.009429765314880666
2748.0,0.00714994205213683
2752.0,-0.010092603355323441
2756.0,-0.005631141853834219
2760.0,0.0048722599549824545
2764.0,0.004561364433531255
2768.0,0.018576749116018153
2772.0,0.007608845328766861
2776.0,0.01805579015434014
2780.0,0.0
2784.0,0.0
2788.0,0.0
2792.0,0.0
2796.0,0.0
2800.0,0.0
2804.0,0.0
2808.0,0.0
2812.0,0.0
2816.0,0.0
2820.0,0.0
2824.0,0.0
2828.0,0.0
2832.0,0.0
2836.0,0.0
2840.0,0.0
2844.0,0.0
2848.0,0.0
2852.0,0.0
2856.0,0.0
2860.0,0.0
2864.0,0.0
2868.0,0.0
2872.0,0.0
2876.0,0.0
2880.0,0.0
2884.0,0.0
2888.0,0.0
2892.0,0.0
2896.0,0.0
2900.0,0.0
2904.0,0.0
2908.0,0.0
2912.0,0.0
2916.0,0.0
2920.0,0.0
2924.0,0.0
2928.0,0.0
2932.0,0.0
2936.0,0.0
2940.0,0.0
2944.0,0.0
2948.0,0.0
2952.0,0.0
2956.0,0.0
2960.0,0.0
2964.0,0.0
2968.0,0.0
2972.0,0.0
2976.0,0.0
2980.0,0.0
2984.0,0.0
2988.0,0.0
2992.0,0.0
2996.0,0.0
3000.0,0.0
3004.0,0.0
3008.0,0.0
3012.0,0.0
3016.0,0.0
3020.0,0.0
3024.0,0.0
3028.0,0.0
3032.0,0.0
3036.0,0.0
3040.0,-0.001056246350775823
3044.0,-0.004330269609444343
3048.0,-0.013597575871898906
3052.0,-0.010130145977328421
3056.0,-0.002305812465766301
3060.0,-0.002566154229344981
3064.0,-0.006270817790761634
3068.0,-0.010294828500014914
3072.0,-0.011262212094751223
3076.0,-0.004546634540221325
3080.0,0.011694215272957205
3084.0,0.02456224655615213
3088.0,0.05151536152241029
3092.0,0.07981552777499687
3096.0,0.1120851637704267
3100.0,0.1274041019187861
3104.0,0.16833568611475097
3108.0,0.17253087291349
3112.0,0.18912710112307318
3116.0,0.2101665372996518
3120.0,0.2052610354475689
3124.0,0.1902636161486018
3128.0,0.19550790998753986
3132.0,0.1816056204429942
3136.0,0.17153411518331263
3140.0,0.13545692979224977
3144.0,0.12293755823130627
3148.0,0.1044004849162461
3152.0,0.06961471490780327
3156.0,0.033075080692536715
3160.0,0.013094681746459396
3164.0,0.0014156895787974905
3168.0,0.020664447206695878
3172.0,0.025308439989086037
3176.0,-0.009854913763213667
3180.0,0.009669992529692986
3184.0,0.0028610680330393807
3188.0,0.013751381358162826
3192.0,-0.009131386798016195
3196.0,0.002539923671011369
3200.0,0.003930888235635632
3204.0,0.007429085619287107
3208.0,-0.004565303224390801
3212.0,0.01891509839450894
3216.0,0.008486546692184085
3220.0,-0.012153426235205734
3224.0,-0.009414179218745862
3228.0,0.0031074305829654346
3232.0,0.0023754309143780602
3236.0,0.0011414214145960657
3240.0,-0.010239426568672225
3244.0,-0.03452072178974916
3248.0,-0.08718733816642404
3252.0,-0.12163546909433849
3256.0,-0.15579428171612142
3260.0,0.0069710594724044315
3264.0,0.19782293801162254
3268.0,0.4144930510050267
3272.0,0.5998706082944669
3276.0,0.8016796521704332
3280.0,1.0001040946713475
3284.0,0.7833143539983421
3288.0,0.5879041246951721
3292.0,0.4159342653637514
3296.0,0.18580422777874767
3300.0,-0.016025184409518743
3304.0,-0.07084978527472055
3308.0,-0.1359975943214789
3312.0,-0.2234487347233492
3316.0,-0.28540668661637236
3320.0,-0.21891210597031277
3324.0,-0.1559738492731699
3328.0,-0.07158461933299518
3332.0,-0.007549348560273459
3336.0,0.006033141125981244
3340.0,-0.0042258420094128364
3344.0,-0.008886876924832025
3348.0,0.011038599458444136
3352.0,0.006731080057818378
3356.0,-0.0019652644564066117
3360.0,-0.007941003241565483
3364.0,-0.004233004809451618
3368.0,-0.014902404416519023
3372.0,-0.005503546677869369
3376.0,-0.0038110638337756583
3380.0,-0.003333016586507672
3384.0,0.005200848060383991
3388.0,0.008765759356982476
3392.0,-0.006056896475291452
3396.0,-0.00626172894449889
3400.0,-0.0038086050069372304
3404.0,-0.004426495757943855
3408.0,0.009082528277742264
3412.0,-0.008451936544738758
3416.0,-0.02331080978870865
3420.0,-0.002470613766865641
3424.0,-0.0033771539658835697
3428.0,-0.013467511188847352
3432.0,-0.0015421268025383368
3436.0,0.0035779193305102213
3440.0,0.005851707824044401
3444.0,0.03289621600153552
3448.0,0.059508619229784634
3452.0,0.07031733215713185
3456.0,0.11249589653389595
3460.0,0.15050685211957657
3464.0,0.17871507526858693
3468.0,0.20493549130387817
3472.0,0.21556113563950136
3476.0,0.2339636970259969
3480.0,0.2433008423823145
3484.0,0.2708827938728613
3488.0,0.28799113542393595
3492.0,0.28627094555335636
3496.0,0.30376534440545533
3500.0,0.30446738225261716
3504.0,0.3045188208192345
3508.0,0.29670855928412476
3512.0,0.285128206539438
3516.0,0.2632906153089834
3520.0,0.27777057087994733
3524.0,0.2623275998592234
3528.0,0.2391667907176666
3532.0,0.20339249120633554
3536.0,0.17154052945508463
3540.0,0.1446165024894777
3544.0,0.1174355739156355
3548.0,0.1123238156601462
3552.0,0.057453189024427254
3556.0,0.035623724268097616
3560.0,-0.005647739380610251
3564.0,-0.010934772835661638
3568.0,-0.015599877847336725
3572.0,-0.005984644149193003
3576.0,-0.006151778751004242
3580.0,0.0023074257793696392
3584.0,0.0019229362252559852
3588.0,-0.014261640854123575
3592.0,-0.00041623359278192154
3596.0,0.00014670533673845625
3600.0,-0.00015357096101594364
3604.0,-0.007215147971305909
3608.0,0.012971149739226808
3612.0,-0.006613121624731455
3616.0,0.004728401661609616
3620.0,0.0019647820054500874
3624.0,0.01612945631105324
3628.0,-0.0029640413130903667
3632.0,0.01425977551566664
3636.0,-0.009199873354036549
3640.0,0.0
3644.0,0.0
3648.0,0.0
3652.0,0.0
3656.0,0.0
3660.0,0.0
3664.0,0.0
3668.0,0.0
3672.0,0.0
3676.0,0.0
3680.0,0.0
3684.0,0.0
3688.0,0.0
3692.0,0.0
3696.0,0.0
3700.0,0.0
3704.0,0.0
3708.0,0.0
3712.0,0.0
3716.0,0.0
3720.0,0.0
3724.0,0.0
3728.0,0.0
3732.0,0.0
3736.0,0.0
3740.0,0.0
3744.0,0.0
3748.0,0.0
3752.0,0.0
3756.0,0.0
3760.0,0.0
3764.0,0.0
3768.0,0.0
3772.0,0.0
3776.0,0.0
3780.0,0.0
3784.0,0.0
3788.0,0.0
3792.0,0.0
3796.0,0.0
3800.0,0.0
3804.0,0.0
3808.0,0.0
3812.0,0.0
3816.0,0.0
3820.0,0.0
3824.0,0.0
3828.0,0.0
3832.0,0.0
3836.0,0.0
3840.0,0.0
3844.0,0.0
3848.0,0.0
3852.0,0.0
3856.0,0.0
3860.0,0.0
3864.0,0.0
3868.0,0.0
3872.0,-0.006101701875988629
3876.0,0.01271166379704409
3880.0,-0.01802583222159319
3884.0,0.020993645517271054
3888.0,0.007541833150043309
3892.0,-0.005008075785380185
3896.0,0.0019646827483977116
3900.0,-0.0059854630785442986
3904.0,0.012169169226840788
3908.0,-0.008960486800760703
3912.0,0.009635050618021817
3916.0,0.013640726346026436
3920.0,0.06537565437842142
3924.0,0.07382765342717428
3928.0,0.124202042317762
3932.0,0.13900517656902917
3936.0,0.16466138277375086
3940.0,0.17883775276599415
3944.0,0.1861853638079911
3948.0,0.19965532624111015
3952.0,0.19696684583395727
3956.0,0.20005314531972165
3960.0,0.19103072305248103
3964.0,0.1712462306471023
3968.0,0.1625478824175294
3972.0,0.11620870181659831
3976.0,0.12157844877944149
3980.0,0.07760335146632913
3984.0,0.06184439191128076
3988.0,0.05703934817547873
3992.0,0.004754974383091547
3996.0,-0.0028109428293795796
4000.0,0.010427204450731944
4004.0,0.0012519005595927923
4008.0,-0.010462673837978467
4012.0,0.0019952876843692792
4016.0,-0.008807230773064152
4020.0,0.011163501628311208
4024.0,-0.01971101424080615
4028.0,0.009471126976394621
4032.0,0.0023105756515726526
4036.0,-0.004666666114665117
4040.0,-0.005422894069062981
4044.0,0.010603018809056279
4048.0,-0.010394281385334228
4052.0,-0.005540488095820025
4056.0,0.008396159379628773
4060.0,-0.009846165289425732
4064.0,-0.006010242982780747
4068.0,0.0020354930748655055
4072.0,0.013387701457092147
4076.0,-0.04950183551608223
4080.0,-0.0724260577897061
4084.0,-0.11772385968983994
4088.0,-0.16837531824110646
4092.0,0.01297635982339362
4096.0,0.21126692173585196
4100.0,0.3989229822973532
4104.0,0.6026439937649472
4108.0,0.7957741781448061
4112.0,1.0102002854700884
4116.0,0.8048664882948544
4120.0,0.6005421685546769
4124.0,0.3805566739092622
4128.0,0.1964260214293799
4132.0,0.005495098465526124
4136.0,-0.09699273925674676
4140.0,-0.14187461980686342
4144.0,-0.2332489067303263
4148.0,-0.2871250317176454
4152.0,-0.22845734626880962
4156.0,-0.14321084733734035
4160.0,-0.10541323187436774
4164.0,0.0022470566083732284
4168.0,-0.012991233619735048
4172.0,-0.010818453910934653
4176.0,0.0004189068758643422
4180.0,-0.002859537205272638
4184.0,-0.011105568376766753
4188.0,-3.0091127607478146e-05
4192.0,-0.002379951241153255
4196.0,0.007719620689706845
4200.0,-0.004581407150201648
4204.0,0.008738319983745005
4208.0,-0.013222876448508041
4212.0,0.009842804712023657
4216.0,-0.02276676920130981
4220.0,-0.010258174491477742
4224.0,-0.0015863126361319398
4228.0,-0.006317593130183149
4232.0,-0.004607324430305283
4236.0,-0.0038509374375224827
4240.0,0.006562002634169493
4244.0,-0.011998647098549886
4248.0,-0.010107081353341376
4252.0,-0.0005677925011823275
4256.0,0.006660142472084999
4260.0,-0.00592755218576469
4264.0,0.002550561112765023
4268.0,-0.015374625117685925
4272.0,-0.00016200539077333123
4276.0,0.023023945771052552
4280.0,0.06419433243123675
4284.0,0.09549514787270463
4288.0,0.13136693621406553
4292.0,0.14677247532608598
4296.0,0.1860444931489709
4300.0,0.1825630512852451
4304.0,0.22869066407130728
4308.0,0.23177320120472067
4312.0,0.2591763151200632
4316.0,0.27012548239078604
4320.0,0.26853599859878025
4324.0,0.28505031970317307
4328.0,0.2955919053398653
4332.0,0.302200272990452
4336.0,0.2953748652528976
4340.0,0.2941589613325152
4344.0,0.2647042683833491
4348.0,0.27498155441000155
4352.0,0.27547508735356985
4356.0,0.2282196003447483
4360.0,0.24313269790869513
4364.0,0.18325019416815602
4368.0,0.16153097976757533
4372.0,0.15228207916074224
4376.0,0.13313568327756942
4380.0,0.09157303348500057
4384.0,0.05994112919119139
4388.0,0.03462269378341751
4392.0,-0.0037138257031722405
4396.0,-0.0027786077134853895
4400.0,-0.011703471716163222
4404.0,-0.006982395729638455
4408.0,-0.0020515007177850744
4412.0,0.007394784974918672
4416.0,-0.004124480261053561
4420.0,-0.0016240490713218007
4424.0,0.004097256269176684
4428.0,-0.0010273543586228932
4432.0,-0.0010227399626207027
4436.0,0.0029060684114135134
4440.0,-0.012694163187194199
4444.0,0.007409337923221519
4448.0,-0.002088623522277035
4452.0,-0.006327899936384554
4456.0,-0.0029723330755095463
4460.0,9.786997495041685e-05
4464.0,0.011842877432558447
4468.0,0.01054381001418191
4472.0,0.0
4476.0,0.0
4480.0,0.0
4484.0,0.0
4488.0,0.0
4492.0,0.0
4496.0,0.0
4500.0,0.0
4504.0,0.0
4508.0,0.0
4512.0,0.0
4516.0,0.0
4520.0,0.0
4524.0,0.0
4528.0,0.0
4532.0,0.0
4536.0,0.0
4540.0,0.0
4544.0,0.0
4548.0,0.0
4552.0,0.0
4556.0,0.0
4560.0,0.0
4564.0,0.0
4568.0,0.0
4572.0,0.0
4576.0,0.0
4580.0,0.0
4584.0,0.0
4588.0,0.0
4592.0,0.0
4596.0,-0.0006821731533075368
4600.0,0.01156066414585695
4604.0,-0.001084854255884146
4608.0,-0.006341543228282124
4612.0,0.012993378537085652
4616.0,0.0007312690730291886
4620.0,-0.016807930556252397
4624.0,0.009941671171905423
4628.0,0.006311025687852658
4632.0,-0.011092131928249436
4636.0,-0.0026190661086400524
4640.0,0.0396454215365107
4644.0,0.056475305029064254
4648.0,0.0666906974300388
4652.0,0.11176725083902554
4656.0,0.14761912064793672
4660.0,0.1724786634402037
4664.0,0.1773517459562253
4668.0,0.18797428038236186
4672.0,0.2146150484791946
4676.0,0.19089521801523343
4680.0,0.21765729534470582
4684.0,0.18742728458270191
4688.0,0.17814464202083105
4692.0,0.14193316672395878
4696.0,0.15287112735532482
4700.0,0.12752314070196893
4704.0,0.08631325384737462
4708.0,0.056388457072752425
4712.0,0.04274654795332263
4716.0,0.006778749936582604
4720.0,0.002673379195070891
4724.0,-0.009590807411671927
4728.0,-0.0026795076425222514
4732.0,0.002276638165037534
4736.0,-0.000662934354019638
4740.0,0.019934427044269624
4744.0,-0.005630124003401432
4748.0,-0.005420316298781753
4752.0,0.010237668652667384
4756.0,-0.0007392374734405137
4760.0,-0.0023564897164475873
4764.0,-0.01962100365149935
4768.0,-0.006626261757549497
4772.0,0.0006356634624220743
4776.0,-0.005200927178431981
4780.0,-0.016286376833361316
4784.0,0.0056468495548195165
4788.0,-0.001562999136021111
4792.0,0.01798569659637599
4796.0,-0.0026135845630640272
4800.0,-0.035501776711258565
4804.0,-0.0781006473039801
4808.0,-0.11372519346848269
4812.0,-0.13672477505987438
4816.0,0.018044654460414384
4820.0,0.20611866056621572
4824.0,0.4143511302118537
4828.0,0.579514275961825
4832.0,0.8005032467942841
4836.0,0.9964478621644413
4840.0,0.8032366040562067
4844.0,0.5850810493463194
4848.0,0.4102347489062269
4852.0,0.21587435098282495
4856.0,-0.012971373383851561
4860.0,-0.06353510853223683
4864.0,-0.13732332793797497
4868.0,-0.22509706110061006
4872.0,-0.27536706077931095
4876.0,-0.2296608683805738
4880.0,-0.156088518618699
4884.0,-0.07528132774462173
4888.0,0.010869730348199729
4892.0,0.006911599442154277
4896.0,-0.005889520294978392
4900.0,0.0034607684274262085
4904.0,-0.010577019548120728
4908.0,-0.00833751816475008
4912.0,-0.01736943905684852
4916.0,-0.024164804636152146
4920.0,0.002351806515395064
4924.0,-0.021882886269077972
4928.0,0.01055104684611395
4932.0,-0.0002539253193914868
4936.0,-0.007307615674309218
4940.0,0.0010401716722625725
4944.0,0.014469188333380033
4948.0,0.012053372941057308
4952.0,0.0065777578125687085
4956.0,-0.008750416192293907
4960.0,-0.010796793186985383
4964.0,0.015250060524560271
4968.0,0.012034575532925187
4972.0,0.003498151447542064
4976.0,0.0035358349119524023
4980.0,-0.0030632238228557947
4984.0,0.010907543425439379
4988.0,0.004899269064768714
4992.0,0.016273336060571186
4996.0,-0.00027122712602685255
5000.0,0.04150154471837128
5004.0,0.051192095934067226
5008.0,0.08158703331022983
5012.0,0.12394079761394548
5016.0,0.13976094837026898
5020.0,0.19184391094112724
5024.0,0.19915466032780985
5028.0,0.21975594717442373
5032.0,0.22174257847158918
5036.0,0.24345756593102308
5040.0,0.2898306512265076
5044.0,0.275298678675736
5048.0,0.286335227837246
5052.0,0.2963279901519324
5056.0,0.30074659290944183
5060.0,0.30039775991090684
5064.0,0.3164684415976986
5068.0,0.2821087887604004
5072.0,0.2773702121920266
5076.0,0.26380996734965556
5080.0,0.23254484040773818
5084.0,0.2370164943802817
5088.0,0.19726125772025793
5092.0,0.18784234533661354
5096.0,0.14396001045636528
5100.0,0.1075651624772268
5104.0,0.07401723178726582
5108.0,0.061210390209771634
5112.0,0.02574835556063997
5116.0,0.0027179156363345432
5120.0,0.0036511924143184543
5124.0,-0.009395332345909987
5128.0,0.003567600706884543
5132.0,-0.006522888102842611
5136.0,-0.011235200476585203
5140.0,0.0020903668294149393
5144.0,0.010898606796533976
5148.0,0.006775899780475329
5152.0,0.010120852685071987
5156.0,-0.009123743133226208
5160.0,0.002003763827786865
5164.0,0.003429922589497973
5168.0,-0.0026132719342621224
5172.0,0.01703408008713524
5176.0,0.0016874983431789728
5180.0,-0.007107886213011534
5184.0,-0.006389787981447866
5188.0,-0.010185246073813586
5192.0,-0.010392030894873734
5196.0,0.0
5200.0,0.0
5204.0,0.0
5208.0,0.0
5212.0,0.0
5216.0,0.0
5220.0,0.0
5224.0,0.0
5228.0,0.0
5232.0,0.0
5236.0,0.0
5240.0,0.0
5244.0,0.0
5248.0,0.0
5252.0,0.0
5256.0,0.0
5260.0,0.0
5264.0,0.0
5268.0,0.0
5272.0,0.0
5276.0,0.0
5280.0,0.0
5284.0,0.0
5288.0,0.0
5292.0,0.0
5296.0,0.0
5300.0,0.0
5304.0,0.0
5308.0,0.0
5312.0,0.0
5316.0,0.0
5320.0,-0.00993630897014999
5324.0,-0.011845222091487377
5328.0,-0.01017800365496823
5332.0,-0.0018674240197014916
5336.0,0.002680936251696713
5340.0,0.00492803790459694
5344.0,-0.0051217138166879264
5348.0,0.007666837177156353
5352.0,0.00343040188298132
5356.0,0.020777084435406445
5360.0,0.0021450882465074007
5364.0,0.03491618011407538
5368.0,0.04393066074252261
5372.0,0.08568284823341539
5376.0,0.0812849807505418
5380.0,0.13726711204388606
5384.0,0.13838999489591258
5388.0,0.1899615843330611
5392.0,0.17848950546023995
5396.0,0.21594579517697746
5400.0,0.18788923637933824
5404.0,0.20062433085046621
5408.0,0.18809249867892125
5412.0,0.1739919248802338
5416.0,0.1639457920361276
5420.0,0.1230767104303783
5424.0,0.11481415103399553
5428.0,0.10151792237785534
5432.0,0.06360055387200692
5436.0,0.025074534578510013
5440.0,0.002239977748665398
5444.0,0.00019566603668419536
5448.0,-0.002499371712761203
5452.0,0.005992237549084154
5456.0,-0.004104153603905963
5460.0,0.008858518269892214
5464.0,0.015283064463539822
5468.0,0.010838708802613138
5472.0,-0.009131089452609289
5476.0,0.005397961718596939
5480.0,0.011911660228573021
5484.0,0.0020007957656192825
5488.0,0.00032661148857575075
5492.0,0.003948929497639949
5496.0,0.0050368030359905286
5500.0,0.007130915902589236
5504.0,-0.015765696386278658
5508.0,0.0017639914018394481
5512.0,0.006720263137900511
5516.0,0.0023648131015336737
5520.0,0.008662553455349723
5524.0,-0.03456056709645191
5528.0,-0.08058696570280381
5532.0,-0.11025293801196667
5536.0,-0.17360277238341115
5540.0,0.010223468923509263
5544.0,0.20768698581752976
5548.0,0.3913212627442031
5552.0,0.6082416162400592
5556.0,0.7747274302117604
5560.0,0.9999780186858354
5564.0,0.7993069741554428
5568.0,0.604207157329671
5572.0,0.389436982502906
5576.0,0.1914133238041793
5580.0,0.006259768668747363
5584.0,-0.07361501813203286
5588.0,-0.14555704135284744
5592.0,-0.20772097134221443
5596.0,-0.28908047638970086
5600.0,-0.235165298976016
5604.0,-0.13243934568329208
5608.0,-0.10165963209270616
5612.0,-0.0009486822581128523
5616.0,-0.00010970279951905896
5620.0,-0.005439980681740735
5624.0,-0.006077661874228432
5628.0,0.0015402916899983571
5632.0,0.004223270462557147
5636.0,-0.040683602929773084
5640.0,-0.0006549818611263218
5644.0,0.005606616620613601
5648.0,0.0027022399692987766
5652.0,0.021355582306759952
5656.0,-0.01552563337271487
5660.0,0.009404804718907818
5664.0,0.012035690254293817
5668.0,0.011248829274566417
5672.0,0.0013763160018746862
5676.0,-0.008790954370135605
5680.0,-0.005399737734178809
5684.0,0.010006216488808504
5688.0,0.0021236794693924098
5692.0,0.011630772738759745
5696.0,-0.0003041837495523279
5700.0,-0.006023473050333765
5704.0,0.001557948553339768
5708.0,-0.011636108897441108
5712.0,0.008632638686161882
5716.0,0.009181685302172414
5720.0,-0.009168605343871723
5724.0,0.01332912653209576
5728.0,0.06901743694492073
5732.0,0.08755740109332089
5736.0,0.12290538960907302
5740.0,0.15537147362819725
5744.0,0.19266627668584815
5748.0,0.19009160540120398
5752.0,0.21763248309137417
5756.0,0.2355798260091888
5760.0,0.2519032200376211
5764.0,0.27071116830552233
5768.0,0.2777214097297476
5772.0,0.2766224199224929
5776.0,0.30444334693215674
5780.0,0.3005237896665188
5784.0,0.283706681134038
5788.0,0.31720349656030616
5792.0,0.275778663367271
5796.0,0.2686309489526142
5800.0,0.28298929079049
5804.0,0.2356143538845376
5808.0,0.2385464207324169
5812.0,0.19530377467652904
5816.0,0.174600589143842
5820.0,0.14128345271249698
5824.0,0.1284091228972751
5828.0,0.08905123454393843
5832.0,0.06828230310897017
5836.0,0.039955902389746556
5840.0,0.005420558330055365
5844.0,-0.008545296967905465
5848.0,-0.013933631960673485
5852.0,0.006995084494441388
5856.0,0.0042173990415861565
5860.0,-0.006430169952191651
5864.0,0.007993606038090769
5868.0,-0.012511900924454958
5872.0,-0.013767844370350009
5876.0,-0.006561721394575693
5880.0,-0.013765694709152626
5884.0,-0.015803724158953973
5888.0,0.004649210117698889
5892.0,-0.0023777288916567844
5896.0,-0.008556718297443408
5900.0,-0.008649426915962604
5904.0,-0.00937336062965696
5908.0,-0.003986739150217125
5912.0,0.0140850041765921
5916.0,0.019830426821769706
5920.0,0.0
5924.0,0.0
5928.0,0.0
5932.0,0.0
5936.0,0.0
5940.0,0.0
5944.0,0.0
5948.0,0.0
5952.0,0.0
5956.0,0.0
5960.0,0.0
5964.0,0.0
5968.0,0.0
5972.0,0.0
5976.0,0.0
5980.0,0.0
5984.0,0.0
5988.0,0.0
5992.0,0.0
5996.0,0.0
6000.0,0.0
6004.0,0.0
6008.0,0.0
6012.0,0.0
6016.0,0.0
6020.0,0.0
6024.0,0.0
6028.0,0.0
6032.0,0.0
6036.0,0.0
6040.0,0.0
6044.0,0.0
6048.0,0.0
6052.0,0.0
6056.0,0.0
6060.0,0.0
6064.0,0.0
6068.0,0.0
6072.0,-0.01269452409822638
6076.0,-0.013784881264155202
6080.0,-0.010874077598908878
6084.0,-0.005973128080437544
6088.0,-0.0036045771738204913
6092.0,-0.004303257957559638
6096.0,-0.00410136319628407
6100.0,-0.004621271912161258
6104.0,0.00224459423118007
6108.0,0.0076175956854699295
6112.0,-0.01883845271582857
6116.0,0.03324663553773356
6120.0,0.06797284405041595
6124.0,0.08364746096480721
6128.0,0.09354148216178962
6132.0,0.13092656554984652
6136.0,0.16124539636495225
6140.0,0.17834852293133147
6144.0,0.1812369948252121
6148.0,0.20520783238064638
6152.0,0.19569520963367046
6156.0,0.1873646931346058
6160.0,0.18337611828973718
6164.0,0.18133496668419116
6168.0,0.1617030063419699
6172.0,0.1558107370537244
6176.0,0.10295503647549688
6180.0,0.08788568317582131
6184.0,0.07798460549999742
6188.0,0.03614666103996747
6192.0,-0.007755947289851223
6196.0,-0.000287282121422657
6200.0,-0.0026637775366606053
6204.0,0.0012370844539165255
6208.0,-0.0018842742979559167
6212.0,0.003293100838319623
6216.0,0.0009859850028189723
6220.0,0.0076537190146864125
6224.0,0.001992444575988502
6228.0,-0.0065396437675973055
6232.0,-0.003840613807507655
6236.0,-0.004367227244495824
6240.0,-0.006092315576219449
6244.0,-0.004077608330002127
6248.0,-0.011271950079934964
6252.0,0.011464547440021962
6256.0,-0.018337042356808827
6260.0,-0.0054028284361513305
6264.0,-0.01034043388016839
6268.0,0.02175186849835126
6272.0,0.0014920038276451004
6276.0,-0.04705332184379582
6280.0,-0.09285238985408346
6284.0,-0.14621468202430343
6288.0,-0.1662303144041278
6292.0,0.017137815061945016
6296.0,0.2095171765085044
6300.0,0.41067497554930293
6304.0,0.5999004164555402
6308.0,0.7857525853905655
6312.0,1.0057027944976509
6316.0,0.8244019652220983
6320.0,0.5928353755940302
6324.0,0.4089112858823347
6328.0,0.2055643269293884
6332.0,-0.0046843114385887894
6336.0,-0.07642099006418274
6340.0,-0.1646969676675552
6344.0,-0.2254386251705067
6348.0,-0.3122072285721361
6352.0,-0.22364851579287992
6356.0,-0.13200412294252606
6360.0,-0.0906951766541106
6364.0,-0.000569237775584889
6368.0,0.005139701746502902
6372.0,-0.003554365359166522
6376.0,0.00827364852809595
6380.0,0.0004268701197961234
6384.0,-0.006280170118264851
6388.0,0.006048409323487014
6392.0,0.0010343166529357096
6396.0,-0.0014795016447825217
6400.0,-0.004767016093956286
6404.0,-0.02033194485374228
6408.0,-0.006571663755744064
6412.0,0.009048710366469485
6416.0,0.0006504292999929219
6420.0,-0.0014842520504958986
6424.0,-0.0005803958239967193
6428.0,0.008142068478128196
6432.0,0.010946015937473378
6436.0,-0.009165721025658559
6440.0,-0.007120076846628648
6444.0,0.0038806566772399353
6448.0,0.01306646929008888
6452.0,-0.0011152917079628314
6456.0,-0.011797691619438989
6460.0,-0.002854265417393289
6464.0,0.000335149918110413
6468.0,-0.017089449043380636
6472.0,-0.009994729099626669
6476.0,0.04447095121413519
6480.0,0.06243564847640114
6484.0,0.1051343639253744
6488.0,0.1207311257959632
6492.0,0.14895700185120442
6496.0,0.17440058808311656
6500.0,0.20937443632198877
6504.0,0.20494474426603826
6508.0,0.22300839516113377
6512.0,0.2619514924294605
6516.0,0.27875841496285475
6520.0,0.28089169227221483
6524.0,0.2974949326863944
6528.0,0.3050340723455734
6532.0,0.2977747875969975
6536.0,0.2837686576503909
6540.0,0.2838304785435348
6544.0,0.28075768192545425
6548.0,0.2835531954427416
6552.0,0.2636018442620684
6556.0,0.25009159389257607
6560.0,0.2123358318620389
6564.0,0.21018942963893844
6568.0,0.17486843231440985
6572.0,0.15851206254448466
6576.0,0.11018652473747359
6580.0,0.08627336856940551
6584.0,0.07564874770961508
6588.0,0.021014813631585267
6592.0,0.009925276072647283
6596.0,0.007620163983335052
6600.0,0.0038684307151493004
6604.0,-0.010157692155484694
6608.0,0.02000064342621302
6612.0,0.007244899722966853
6616.0,0.00025483714722361074
6620.0,0.013760121790476802
6624.0,-0.0003611345164735847
6628.0,-0.0038855328358251267
6632.0,-0.006861683517821258
6636.0,0.007168892240772067
6640.0,0.018876272065010274
6644.0,-0.0018091584221418186
6648.0,0.0017945398034575639
6652.0,-0.016071275894923926
6656.0,-0.012730061561947968
6660.0,-0.005394365752628451
6664.0,-0.002613943132222512
6668.0,0.012286515061150492
6672.0,0.0
6676.0,0.0
6680.0,0.0
6684.0,0.0
6688.0,0.0
6692.0,0.0
6696.0,0.0
6700.0,0.0
6704.0,0.0
6708.0,0.0
6712.0,0.0
6716.0,0.0
6720.0,0.0
6724.0,0.0
6728.0,0.0
6732.0,0.0
6736.0,0.0
6740.0,0.0
6744.0,0.0
6748.0,0.0
6752.0,0.0
6756.0,0.0
6760.0,0.0
6764.0,0.0
6768.0,0.0
6772.0,0.0
6776.0,0.0
6780.0,0.0
6784.0,0.0
6788.0,0.0
6792.0,0.0
6796.0,0.0
6800.0,0.0
6804.0,0.0
6808.0,0.0
6812.0,0.0
6816.0,0.0
6820.0,0.0
6824.0,0.0
6828.0,0.0
6832.0,0.0
6836.0,0.0
6840.0,0.0
6844.0,0.0
6848.0,0.0
6852.0,0.0
6856.0,0.0
6860.0,0.0
6864.0,0.0
6868.0,0.0
6872.0,0.0
6876.0,0.0
6880.0,0.0
6884.0,0.0
6888.0,0.0
6892.0,0.0
6896.0,0.0
6900.0,0.0
6904.0,0.0
6908.0,0.0
6912.0,0.0
6916.0,0.0
6920.0,0.0
6924.0,0.0
6928.0,0.0
6932.0,0.0
6936.0,0.0
6940.0,0.0
6944.0,0.0
6948.0,0.0
6952.0,0.0
6956.0,0.0
6960.0,0.0
6964.0,0.0
6968.0,0.0
6972.0,0.0
6976.0,0.0
6980.0,0.0
6984.0,0.0
6988.0,0.0
6992.0,0.0
6996.0,0.0
7000.0,0.0
7004.0,0.0
7008.0,0.0
7012.0,0.0
7016.0,0.0
7020.0,0.0
7024.0,0.0
7028.0,0.0
7032.0,0.0
7036.0,0.0
7040.0,0.0
7044.0,0.0
7048.0,0.0
7052.0,0.0
7056.0,0.0
7060.0,0.0
7064.0,0.0
7068.0,0.0
7072.0,0.0
7076.0,0.0
7080.0,0.0
7084.0,0.0
7088.0,0.0
7092.0,0.0
7096.0,0.0
7100.0,0.0
7104.0,0.0
7108.0,0.0
7112.0,0.0
7116.0,0.0
7120.0,0.0
7124.0,0.0
7128.0,0.0
7132.0,0.0
7136.0,0.0
7140.0,0.0
7144.0,0.0
7148.0,0.0
7152.0,0.0
7156.0,0.0
7160.0,0.0
7164.0,0.0
7168.0,0.0
7172.0,0.0
7176.0,0.0
7180.0,0.0
7184.0,0.0
7188.0,0.0
7192.0,0.0
7196.0,0.0
7200.0,0.0
7204.0,0.0
7208.0,0.0
7212.0,0.0
7216.0,0.0
7220.0,0.0
7224.0,0.0
7228.0,0.0
7232.0,0.0
7236.0,0.0
7240.0,0.0
7244.0,0.0
7248.0,0.0
7252.0,0.0
7256.0,0.0
7260.0,0.0
7264.0,0.0
7268.0,0.0
7272.0,-0.001222206055520638
7276.0,-0.003648306105851561
7280.0,0.02196737291136123
7284.0,-0.009938246558873223
7288.0,0.011072496897782181
7292.0,0.022579276319355267
7296.0,0.012383236648101583
7300.0,0.0025123902736799274
7304.0,-0.019750781439348556
7308.0,0.014435866287078302
7312.0,-0.00500887604444222
7316.0,0.028712728032562744
7320.0,0.0558602568106716
7324.0,0.095942154132626
7328.0,0.09795906557558953
7332.0,0.14928160049946088
7336.0,0.158743904968024
7340.0,0.16291588868871076
7344.0,0.1976684159949707
7348.0,0.2026717533859519
7352.0,0.20827514260287597
7356.0,0.20018837492213362
7360.0,0.18752789797314406
7364.0,0.19465517594636153
7368.0,0.16240964489507748
7372.0,0.1481513827814067
7376.0,0.13170787680194226
7380.0,0.08623605871973107
7384.0,0.054051831561538755
7388.0,0.015326353531402652
7392.0,-0.010306489332895108
7396.0,0.004822160958782221
7400.0,-0.0023653162301225184
7404.0,-0.0002333178100901958
7408.0,-0.002539884320662346
7412.0,0.01926461006533013
7416.0,-0.010955729472439276
7420.0,-0.009966471937501943
7424.0,0.010816291912532274
7428.0,0.004718016258318489
7432.0,0.005359405873663867
7436.0,0.012848294253909083
7440.0,0.006858679582570921
7444.0,0.007070801945492568
7448.0,0.0005659711992007693
7452.0,0.005531644760911478
7456.0,0.00189220930881657
7460.0,-0.004661082251265732
7464.0,0.0182774612547761
7468.0,0.00991799733195236
7472.0,0.0028532989947236335
7476.0,-0.031646687914036464
7480.0,-0.08971026839908952
7484.0,-0.11322184299436967
7488.0,-0.17787019842557703
7492.0,0.006445515217333073
7496.0,0.1846338197488742
7500.0,0.3876977379597209
7504.0,0.5923293792934561
7508.0,0.7945499941248407
7512.0,1.006985551010604
7516.0,0.7897958537796291
7520.0,0.5979713244867721
7524.0,0.4012493687315097
7528.0,0.19049230352087002
7532.0,-0.0014271290196829673
7536.0,-0.06922867019014736
7540.0,-0.1428519577371269
7544.0,-0.21594382789305988
7548.0,-0.310422272455614
7552.0,-0.21432232156794953
7556.0,-0.1352084956999557
7560.0,-0.07153060377113349
7564.0,0.005784081947405008
7568.0,-0.010769558381856576
7572.0,-0.0012403428841795026
7576.0,-0.008436751376940502
7580.0,0.011154066391896674
7584.0,-0.0036655803744428507
7588.0,5.565941034476721e-05
7592.0,0.002269750222559715
7596.0,0.015730246021506824
7600.0,0.006105348515193193
7604.0,0.00245137720743881
7608.0,-0.01043888671257863
7612.0,0.0023057585435039096
7616.0,-0.007004255126324074
7620.0,0.015622399359046897
7624.0,0.0017807692389092274
7628.0,-0.014692542492999006
7632.0,-0.0004256211827064195
7636.0,0.009294522653962918
7640.0,0.002929276015479312
7644.0,-0.020102007640289243
7648.0,-0.006063953020395038
7652.0,0.013208695457529458
7656.0,-0.003932131514507086
7660.0,0.0049664056286674195
7664.0,-0.001254178181274062
7668.0,0.0026410748817449056
7672.0,0.007661248383481931
7676.0,0.03862919535962868
7680.0,0.0644970339943379
7684.0,0.10208714572759037
7688.0,0.11889533079486829
7692.0,0.13606177271549258
7696.0,0.17464114179248305
7700.0,0.20865401256375268
7704.0,0.239449816344219
7708.0,0.25118929417816394
7712.0,0.2641703896453355
7716.0,0.27763198225754526
7720.0,0.2970977949467391
7724.0,0.27503545427950865
7728.0,0.28462693047698484
7732.0,0.29191840193839214
7736.0,0.2898931987510555
7740.0,0.2876953899454457
7744.0,0.2863659051831704
7748.0,0.26847640294426617
7752.0,0.26277633978932285
7756.0,0.24199154347202406
7760.0,0.23453716464330682
7764.0,0.21166473340433695
7768.0,0.17942312779772765
7772.0,0.14315922464963413
7776.0,0.11797615568875051
7780.0,0.09080203088192834
7784.0,0.05769954508863942
7788.0,0.03167301299710465
7792.0,0.0020092391078390275
7796.0,0.0056185716617080115
7800.0,0.012927702091882445
7804.0,-0.002936318479067475
7808.0,0.005787742827887886
7812.0,0.004447960032720887
7816.0,0.0032614339208490817
7820.0,-0.001968892367625816
7824.0,-0.007734926005069837
7828.0,-0.006124551063404081
7832.0,1.8383593320837783e-05
7836.0,0.0037407800904729342
7840.0,-0.015904427800207947
7844.0,-0.0027058272178964666
7848.0,-0.00998901214267214
7852.0,0.007841225541401632
7856.0,0.00613670879364788
7860.0,-0.000979747854206384
7864.0,-0.007062736394692073
7868.0,0.0066951465335387565
7872.0,0.0
7876.0,0.0
7880.0,0.0
7884.0,0.0
7888.0,0.0
7892.0,0.0
7896.0,0.0
7900.0,0.0
7904.0,0.0
7908.0,0.0
7912.0,0.0
7916.0,0.0
7920.0,0.0
7924.0,0.0
7928.0,0.0
7932.0,0.0
7936.0,0.0
7940.0,0.0
7944.0,0.0
7948.0,0.0
7952.0,0.0
7956.0,0.0
7960.0,0.0
7964.0,0.0
7968.0,0.0
7972.0,0.0
7976.0,0.0
7980.0,0.0
7984.0,0.0
7988.0,0.0
7992.0,0.0
7996.0,0.0
8000.0,0.0
8004.0,0.0
8008.0,0.0
8012.0,0.0
8016.0,0.0
8020.0,0.0
8024.0,0.0
8028.0,0.0
8032.0,0.0
8036.0,0.0
8040.0,0.0
8044.0,0.0
8048.0,0.0
8052.0,0.0
8056.0,0.0
8060.0,0.011312104853989749
8064.0,0.00024045222065602489
8068.0,0.008801978465963894
8072.0,0.019362632237115925
8076.0,-0.00596465183252956
8080.0,0.016598658841861333
8084.0,0.0012688414437827939
8088.0,-0.019201387005553943
8092.0,0.0044189419190338725
8096.0,0.0031919872189906046
8100.0,-0.01031230550144516
8104.0,0.02444525958037748
8108.0,0.08624133601280999
8112.0,0.06800762731797143
8116.0,0.10517933955717823
8120.0,0.14325575406162253
8124.0,0.16535827975997822
8128.0,0.1805511139979133
8132.0,0.18418705436031227
8136.0,0.21245139668836538
8140.0,0.16403511169010782
8144.0,0.19194547934980413
8148.0,0.20229906808081288
8152.0,0.1785286873874117
8156.0,0.14964736172461313
8160.0,0.15323898395494995
8164.0,0.12876059444517213
8168.0,0.0777946864195285
8172.0,0.055860900121262935
8176.0,0.028131480303218905
8180.0,0.005298086842661935
8184.0,-0.0003279422298803138
8188.0,-0.01151181504336209
8192.0,0.006864287235658795
8196.0,-0.012181251436588814
8200.0,-0.004515109187506601
8204.0,-0.021450475519183283
8208.0,-0.006050536354570416
8212.0,0.011909525173205981
8216.0,0.006642210297478915
8220.0,-0.001679155748090269
8224.0,0.008468937095584682
8228.0,0.011273516571323399
8232.0,0.014906309875166316
8236.0,-0.002636720370532953
8240.0,0.004261036886363165
8244.0,0.01548840508799425
8248.0,-0.002710868023543277
8252.0,-0.005290861399915874
8256.0,0.005907478416686041
8260.0,-0.008433322715328014
8264.0,-0.027559344559085805
8268.0,-0.08052812227596166
8272.0,-0.13193696234882377
8276.0,-0.17256623702723975
8280.0,-0.021013024357546067
8284.0,0.20300528773247545
8288.0,0.39322199465310564
8292.0,0.5898186707395044
8296.0,0.7989012474507189
8300.0,1.0076397976258193
8304.0,0.7892287381064989
8308.0,0.6021836085538769
8312.0,0.4007074032888947
8316.0,0.21361734409588706
8320.0,0.005930485171184706
8324.0,-0.07359052483344608
8328.0,-0.15884750547673543
8332.0,-0.20413593068325056
8336.0,-0.30488911151211545
8340.0,-0.23518571383305303
8344.0,-0.16247102155280407
8348.0,-0.06417167059571559
8352.0,0.013736482676233702
8356.0,0.013855779640583302
8360.0,0.004693006298400865
8364.0,-0.011086058262896855
8368.0,-0.004508259000929267
8372.0,0.01188727532127532
8376.0,-0.028255618527544032
8380.0,-0.011712038682311942
8384.0,-0.004862229552546078
8388.0,-0.0008678332519357574
8392.0,-0.0192113622532523
8396.0,0.010666494794624493
8400.0,-0.006387999535302732
8404.0,0.0018660265096720559
8408.0,0.0012746732245707817
8412.0,0.008522141554428722
8416.0,-0.003840993248331205
8420.0,-0.0035272672513004073
8424.0,0.02429229938031106
8428.0,0.0033791169797993776
8432.0,0.0033414447320866316
8436.0,-0.015000826082949713
8440.0,-0.00894493816474368
8444.0,0.002039510287962363
8448.0,-0.0014427812880543442
8452.0,-0.006919661002492143
8456.0,6.0037369065021906e-05
8460.0,0.013377077511024663
8464.0,0.018954207731898605
8468.0,0.05773868075068732
8472.0,0.10650543463949792
8476.0,0.13185536163026718
8480.0,0.1417522893521181
8484.0,0.18508630617881894
8488.0,0.19463599610963786
8492.0,0.23320980070086147
8496.0,0.23332536436851664
8500.0,0.2845625056615375
8504.0,0.2661154465706194
8508.0,0.3117687752261348
8512.0,0.2966291387522
8516.0,0.30977299754529697
8520.0,0.31583867725787085
8524.0,0.31604045001609243
8528.0,0.2736236416079292
8532.0,0.28961921678342406
8536.0,0.28838392775361693
8540.0,0.26111556607451086
8544.0,0.23892027959691647
8548.0,0.21310653517755565
8552.0,0.20468682970452767
8556.0,0.16406555698229366
8560.0,0.14887019665671317
8564.0,0.1206160112647759
8568.0,0.12054840772385682
8572.0,0.03789107805217
8576.0,0.016261972956704028
8580.0,-0.0044496807552163505
8584.0,-0.009335121119349882
8588.0,-0.008259773556209674
8592.0,0.005507363329786498
8596.0,-0.0006890327163911685
8600.0,-0.01405718003361803
8604.0,-0.001970963233673025
8608.0,-0.002971859837389842
8612.0,-0.006791767397307108
8616.0,0.010144017065330031
8620.0,-0.012130325979565282
8624.0,0.000802717886171631
8628.0,-0.0116851961286958
8632.0,0.00180868193387825
8636.0,0.009034762202982351
8640.0,-0.0024280288069904277
8644.0,0.008700649723018301
8648.0,-0.008521757032955475
8652.0,0.0057717484600768665
8656.0,0.0031175826814636145
8660.0,0.0
8664.0,0.0
8668.0,0.0
8672.0,0.0
8676.0,0.0
8680.0,0.0
8684.0,0.0
8688.0,0.0
8692.0,0.0
8696.0,0.0
8700.0,0.0
8704.0,0.0
8708.0,0.0
8712.0,0.0
8716.0,0.0
8720.0,0.0
8724.0,0.0
8728.0,0.0
8732.0,0.0
8736.0,0.0
8740.0,0.0
8744.0,0.0
8748.0,0.0
8752.0,0.0
8756.0,0.0
8760.0,0.0
8764.0,0.0
8768.0,0.0
8772.0,0.0
8776.0,0.0
8780.0,0.0
8784.0,0.0
8788.0,0.0
8792.0,0.0
8796.0,0.0
8800.0,0.0
8804.0,0.0
8808.0,0.0
8812.0,0.0
8816.0,0.0
8820.0,0.0
8824.0,0.0
8828.0,0.0
8832.0,0.0
8836.0,0.0
8840.0,0.0
8844.0,-0.017310789363823766
8848.0,-0.007535962091296104
8852.0,-0.002672428708351681
8856.0,-0.007415574038694848
8860.0,0.010353419337888635
8864.0,-0.009433663893309577
8868.0,0.003954193675368629
8872.0,-0.008528757413424006
8876.0,0.004661241531649812
8880.0,0.009351137619003053
8884.0,-0.003498169280940355
8888.0,0.0356614612062493
8892.0,0.0347757073464057
8896.0,0.09453924410098138
8900.0,0.12078977783782636
8904.0,0.15572920208036342
8908.0,0.16711571399364986
8912.0,0.1712247626406763
8916.0,0.19377710422640934
8920.0,0.1870314636317763
8924.0,0.1881744125039624
8928.0,0.18340824866680347
8932.0,0.19492699713183065
8936.0,0.16803610901297128
8940.0,0.16966009223638856
8944.0,0.140267531874763
8948.0,0.11414146844170953
8952.0,0.0809388890730391
8956.0,0.06967331690402302
8960.0,0.03974746211897774
8964.0,-0.027983756367595893
8968.0,0.0010470602185677625
8972.0,-0.019386090075267325
8976.0,-0.006809611703457729
8980.0,-0.01728881057861466
8984.0,-0.005431174754718036
8988.0,0.007682247106555655
8992.0,-0.008558730348303246
8996.0,0.002717341590953056
9000.0,0.0045509838748778
9004.0,0.011642364274157416
9008.0,-0.009520903878938078
9012.0,-0.011984693537410366
9016.0,-0.012766469488512051
9020.0,0.007465239681049813
9024.0,-0.0032458077819167044
9028.0,0.0026309115884424424
9032.0,0.0028699369070920777
9036.0,0.011030901058028772
9040.0,0.010474573249633698
9044.0,-0.0013427050945984088
9048.0,-0.040852486608306385
9052.0,-0.08167067842188537
9056.0,-0.12351557715707386
9060.0,-0.1629118754045098
9064.0,0.004393040020297333
9068.0,0.2044790961318181
9072.0,0.40120401773381853
9076.0,0.5915842137309449
9080.0,0.8087260710365278
9084.0,0.9832887588870358
9088.0,0.7953192836311825
9092.0,0.5957508023950542
9096.0,0.39441943353453973
9100.0,0.20610677411318942
9104.0,-0.007409801820875375
9108.0,-0.06635323651884521
9112.0,-0.13330644339091965
9116.0,-0.22119257207176857
9120.0,-0.2822098824261169
9124.0,-0.2185292243944847
9128.0,-0.14499007497166616
9132.0,-0.05836923144796675
9136.0,0.0027474106612145623
9140.0,-0.009881690956023516
9144.0,0.009208065984134749
9148.0,0.01374354809984365
9152.0,0.013088695393625137
9156.0,-0.005831638710884326
9160.0,0.0040966290253750745
9164.0,-0.000897991600097711
9168.0,-0.010607867264497478
9172.0,-0.0006511843807579233
9176.0,-0.015651025688097595
9180.0,-0.0034956663451738636
9184.0,-0.0029760866372079277
9188.0,-0.0027410630093795663
9192.0,0.0007056912223750664
9196.0,0.0033278885161330436
9200.0,-0.008197697588553956
9204.0,0.007424348527614127
9208.0,0.0020908287501675777
9212.0,-0.012746440590326985
9216.0,0.017290296109700887
9220.0,-0.0023186751181351966
9224.0,0.010854938953932785
9228.0,-0.022586646410393478
9232.0,0.002066315119510887
9236.0,-0.008088504914162483
9240.0,-0.008547210164274678
9244.0,-0.016352037614889917
9248.0,0.043765096816441494
9252.0,0.06582327607971251
9256.0,0.10519770251704791
9260.0,0.10932178702901683
9264.0,0.1590355054751572
9268.0,0.16957094957986288
9272.0,0.17561351647888504
9276.0,0.22388707374644723
9280.0,0.250976654638302
9284.0,0.25299789007979273
9288.0,0.2742381702810097
9292.0,0.2807158229788378
9296.0,0.2951157111577454
9300.0,0.29379733348577575
9304.0,0.299938059222933
9308.0,0.29681768138623854
9312.0,0.2911035508920011
9316.0,0.2781520393745972
9320.0,0.27233835664406764
9324.0,0.2739926359533524
9328.0,0.24983957408165403
9332.0,0.22465410536320815
9336.0,0.19411540017358556
9340.0,0.17631782715389505
9344.0,0.14785212060971795
9348.0,0.1112881149915335
9352.0,0.10799724356220286
9356.0,0.056490027000692514
9360.0,0.029308810919589326
9364.0,0.00141293099398749
9368.0,0.0013021364835540331
9372.0,-0.020080368879375227
9376.0,0.003111777507541651
9380.0,0.0007299736880344229
9384.0,-0.003933391103247466
9388.0,-0.002666481605621993
9392.0,0.012829075679243697
9396.0,-0.0020213224416439565
9400.0,-0.002146740877611808
9404.0,-0.0031990262183770744
9408.0,0.012561804688432581
9412.0,0.0026595930707359254
9416.0,0.008229374578110012
9420.0,-0.00832679589978327
9424.0,-0.009297611157007892
9428.0,-0.012341033650818073
9432.0,-0.0003624889683321387
9436.0,0.0069992710107228415
9440.0,-0.024814239209419095
9444.0,0.0
9448.0,0.0
9452.0,0.0
9456.0,0.0
9460.0,0.0
9464.0,0.0
9468.0,0.0
9472.0,0.0
9476.0,0.0
9480.0,0.0
9484.0,0.0
9488.0,0.0
9492.0,0.0
9496.0,0.0
9500.0,0.0
9504.0,0.0
9508.0,0.0
9512.0,0.0
9516.0,0.0
9520.0,0.0
9524.0,0.0
9528.0,0.0
9532.0,0.0
9536.0,0.0
9540.0,0.0
9544.0,0.0
9548.0,0.0
9552.0,0.0
9556.0,0.0
9560.0,0.0
9564.0,0.0
9568.0,0.0
9572.0,0.0
9576.0,0.0
9580.0,0.0
9584.0,0.0
9588.0,0.0
9592.0,0.0
9596.0,0.0
9600.0,0.0
9604.0,0.0
9608.0,0.0
9612.0,0.0
9616.0,0.0
9620.0,0.0
9624.0,0.0
9628.0,0.00204261947864853
9632.0,0.0022964221483681006
9636.0,-0.006130565761932957
9640.0,0.00278772058223137
9644.0,-0.003141161139445352
9648.0,0.013633451928719151
9652.0,-0.0037864639293592557
9656.0,-0.011972819652829751
9660.0,-0.015210953401363981
9664.0,-0.011161009150490413
9668.0,0.008635198390923313
9672.0,0.014597682157299199
9676.0,0.056693542137850786
9680.0,0.08866669494033093
9684.0,0.12665268195094986
9688.0,0.1372546094924415
9692.0,0.1690052706662393
9696.0,0.1811753615903988
9700.0,0.18565713207276002
9704.0,0.20038074088045643
9708.0,0.1971772601431741
9712.0,0.18552364207071742
9716.0,0.18198746557111709
9720.0,0.1807973448067028
9724.0,0.1399062730523461
9728.0,0.13674533585724447
9732.0,0.10605653456513525
9736.0,0.08209015777365698
9740.0,0.06578235459083748
9744.0,0.015151847064932816
9748.0,-0.013425720461544092
9752.0,0.0061951867170078456
9756.0,-0.00017398794368699827
9760.0,-0.006161054169397703
9764.0,0.009296719767268386
9768.0,-0.0033728890381399994
9772.0,0.00018812949915736726
9776.0,0.00970331711696672
9780.0,-0.005874760479024875
9784.0,-0.008700492014159674
9788.0,0.006120735675573347
9792.0,0.0011619399888191822
9796.0,0.012445225173538868
9800.0,0.00097422930506718
9804.0,-0.007132754227141127
9808.0,0.0022799573243963782
9812.0,-0.0029580925391322864
9816.0,-0.01327297152567735
9820.0,-0.020227763414087323
9824.0,-0.0027631272497648
9828.0,-0.011746041146704425
9832.0,-0.029154665528993998
9836.0,-0.09356484355309334
9840.0,-0.11217973198887184
9844.0,-0.16904198370198828
9848.0,0.005700809415075044
9852.0,0.21050165771388252
9856.0,0.3948118233414358
9860.0,0.6172905842077115
9864.0,0.7998220114524054
9868.0,0.9929719656148748
9872.0,0.8058794109392905
9876.0,0.6000554970859957
9880.0,0.39398458230111993
9884.0,0.18991568680411894
9888.0,0.00506005328757161
9892.0,-0.07142724078541128
9896.0,-0.15427060415079258
9900.0,-0.21726627615183328
9904.0,-0.3059083569900119
9908.0,-0.22190718590321135
9912.0,-0.15382969502326896
9916.0,-0.06591029377663607
9920.0,-0.015583397358100782
9924.0,0.0003433062287893955
9928.0,-0.0039875019819784465
9932.0,0.0036871773068949073
9936.0,-0.008262577298994543
9940.0,0.005848108422553293
9944.0,0.008061356785827098
9948.0,0.011571346764062677
9952.0,-0.006939252841926282
9956.0,-0.0020317943017651146
9960.0,-0.013677894224456538
9964.0,-0.00013375473538562323
9968.0,-0.010268497504342746
9972.0,-0.014182446083698806
9976.0,0.003689446418616002
9980.0,-0.004040753699597153
9984.0,0.0008592511105118853
9988.0,-0.013653353789789869
9992.0,0.0005055168008127215
9996.0,-0.0010020693661676055
10000.0,-0.0013851571177292425
10004.0,-0.008839455014779675
10008.0,0.015085781228963143
10012.0,-0.004387029786592937
10016.0,-0.010259793626175686
10020.0,-0.0037011800891148493
10024.0,0.00731293382999921
10028.0,0.005735332268596548
10032.0,0.02108773839592889
10036.0,0.0716784429331722
10040.0,0.09613846487244042
10044.0,0.12485423069116831
10048.0,0.14547708008139656
10052.0,0.1610967984602423
10056.0,0.20437667386056044
10060.0,0.2326456402162477
10064.0,0.24743304935327512
10068.0,0.2528671206213399
10072.0,0.2925856131762983
10076.0,0.2807224477302445
10080.0,0.3165053039136565
10084.0,0.27202617507163
10088.0,0.2864902447322731
10092.0,0.3026614118344284
10096.0,0.2856584487454672
10100.0,0.27670499019912703
10104.0,0.27522431616450677
10108.0,0.26474570934683483
10112.0,0.24413846602593192
10116.0,0.22937856830273642
10120.0,0.19347750407596115
10124.0,0.1824063096939442
10128.0,0.15589355890433987
10132.0,0.10838584446954647
10136.0,0.0770551379232724
10140.0,0.05272430327968221
10144.0,0.028843707875293386
10148.0,0.02572043175867584
10152.0,0.029718390580270065
10156.0,-0.001504779916127304
10160.0,-0.004041389471541034
10164.0,0.010578140456104992
10168.0,-1.1894898019985065e-05
10172.0,-0.012852505727531114
10176.0,-0.0018268573716570008
10180.0,-0.006714410765146629
10184.0,-0.006867292643070368
10188.0,0.0006074895169725389
10192.0,-0.0018341850550612287
10196.0,0.007612160399125826
10200.0,0.012924097327789975
10204.0,-0.0055197935864553715
10208.0,-0.003389904737071756
10212.0,-0.004719508350748261
10216.0,-4.772899478940079e-05
10220.0,-0.004309563024722719
10224.0,-0.0035638808549138075
10228.0,0.0
10232.0,0.0
10236.0,0.0
10240.0,0.0
10244.0,0.0
10248.0,0.0
10252.0,0.0
10256.0,0.0
10260.0,0.0
10264.0,0.0
10268.0,0.0
10272.0,0.0
10276.0,0.0
10280.0,0.0
10284.0,0.0
10288.0,0.0
10292.0,0.0
10296.0,0.0
10300.0,0.0
10304.0,0.0
10308.0,0.0
10312.0,0.0
10316.0,0.0
10320.0,0.0
10324.0,0.0
10328.0,0.0
10332.0,0.0
10336.0,0.0
10340.0,0.0
10344.0,0.0
10348.0,0.0
10352.0,0.0
10356.0,0.0
10360.0,0.0
10364.0,0.0
10368.0,0.0
10372.0,0.0
10376.0,0.0
10380.0,0.0
10384.0,0.0
10388.0,0.0
10392.0,0.0
10396.0,0.0
10400.0,0.0
10404.0,0.0
10408.0,0.0
10412.0,0.0
10416.0,0.0
10420.0,0.0
10424.0,0.0
10428.0,0.0
10432.0,0.0
10436.0,0.0
10440.0,0.0
10444.0,0.0
10448.0,0.011816927353928499
10452.0,0.008430756387812023
10456.0,0.01828783163412363
10460.0,-0.007856529381447899
10464.0,0.013107622272960003
10468.0,-0.012248606008246265
10472.0,0.006189599615059901
10476.0,0.015139544098147238
10480.0,0.013942468463774496
10484.0,-0.002985171639194062
10488.0,0.011683732264307911
10492.0,0.03112959769983933
10496.0,0.0687418690751926
10500.0,0.07750547551912144
10504.0,0.11472271838338383
10508.0,0.1253736210691798
10512.0,0.1591174440443073
10516.0,0.15920628963015585
10520.0,0.1789753558272012
10524.0,0.19789290105540394
10528.0,0.18960668946364487
10532.0,0.19314124622594864
10536.0,0.1819056440045542
10540.0,0.19506059302985304
10544.0,0.14883546655385507
10548.0,0.13761006968128356
10552.0,0.12751230005198816
10556.0,0.0913127263148207
10560.0,0.050724470908868835
10564.0,0.016967525735535807
10568.0,0.012141319270546522
10572.0,0.013637267454049092
10576.0,-0.005542041682008294
10580.0,-0.0013677021178080228
10584.0,0.017906236992553292
10588.0,0.011311948542662906
10592.0,-0.011947571194400139
10596.0,-0.010875995528307394
10600.0,-0.004972135535773252
10604.0,-0.009226451840092433
10608.0,0.008575054409265058
10612.0,0.002482014814108838
10616.0,0.011380567096157802
10620.0,-0.02194580192262894
10624.0,-0.0072032866220501915
10628.0,-0.006854838418841175
10632.0,-0.0023419498919852347
10636.0,0.0034924376986503847
10640.0,0.005938862565012724
10644.0,0.008838640793915824
10648.0,-0.0063585990685219185
10652.0,-0.02682344010379302
10656.0,-0.09081236544118661
10660.0,-0.10823561155517278
10664.0,-0.13892182204674255
10668.0,-0.003911065528015105
10672.0,0.19419791273381487
10676.0,0.3920097058102689
10680.0,0.598862851864561
10684.0,0.8000263241951695
10688.0,0.981373164937475
10692.0,0.7999321502367952
10696.0,0.587721754832656
10700.0,0.39188834677131223
10704.0,0.2030634082672682
10708.0,0.002950091965575581
10712.0,-0.07301169668169953
10716.0,-0.14555486790173586
10720.0,-0.23193876054686924
10724.0,-0.2975229881078191
10728.0,-0.23011549531470146
10732.0,-0.16051336074272657
10736.0,-0.0736857106571692
10740.0,-0.00970268353717441
10744.0,0.002997977012155688
10748.0,-0.003953870867660017
10752.0,-0.0034986315983200765
10756.0,-0.011115817814021094
10760.0,-0.009762447805407125
10764.0,-0.005285849211290807
10768.0,0.005939573582874856
10772.0,-0.013303463521894635
10776.0,-0.003609383080034213
10780.0,0.002324082157016201
10784.0,0.004822143588156559
10788.0,-0.009541180641033035
10792.0,0.0007167227231190367
10796.0,0.0035526351685693947
10800.0,-0.011811334700806298
10804.0,0.006004129655193231
10808.0,0.001389811504831591
10812.0,0.002351667836747753
10816.0,0.0028532631439961067
10820.0,-0.0031329633778255516
10824.0,-0.002881025856124087
10828.0,0.0045460808924251955
10832.0,0.01295470548745893
10836.0,0.013337951697984058
10840.0,0.014374367151871396
10844.0,0.012483911333384902
10848.0,-0.011045035936382843
10852.0,0.01957001064729879
10856.0,0.07252554389166367
10860.0,0.10779951957253672
10864.0,0.1268770077048349
10868.0,0.14323962580224817
10872.0,0.17215699021437497
10876.0,0.1939545571564433
10880.0,0.22714971582877175
10884.0,0.24946306209570113
10888.0,0.26057943822598834
10892.0,0.27767841716188785
10896.0,0.3030548826016215
10900.0,0.2936550589952258
10904.0,0.2872592506244173
10908.0,0.29698884561050015
10912.0,0.30724798777304196
10916.0,0.303183058582244
10920.0,0.2905309765989398
10924.0,0.2888290315326632
10928.0,0.2633639088929636
10932.0,0.2451676588296964
10936.0,0.22488620214162208
10940.0,0.19272987445592887
10944.0,0.1904270691590962
10948.0,0.14367673661603886
10952.0,0.12367225278026313
10956.0,0.08522000821390642
10960.0,0.07249172821485053
10964.0,0.03003914815425085
10968.0,0.012380978173797044
10972.0,-0.014100387281103242
10976.0,-0.004456540485190088
10980.0,0.004981206710912834
10984.0,0.0014130018348703045
10988.0,-0.017063528541480362
10992.0,-0.003566897816378389
10996.0,0.00265042696249917
11000.0,-0.006014995952953319
11004.0,-0.002016319382622652
11008.0,-0.009609141961685498
11012.0,0.01291145153219866
11016.0,-0.01141798656875259
11020.0,-0.003395480928363122
11024.0,0.003451409477861186
11028.0,-0.008472289578336845
11032.0,0.009035401501969508
11036.0,0.006833505429917372
11040.0,-0.009857663837873242
11044.0,-0.0041882293641710465
11048.0,0.0
11052.0,0.0
11056.0,0.0
11060.0,0.0
11064.0,0.0
11068.0,0.0
11072.0,0.0
11076.0,0.0
11080.0,0.0
11084.0,0.0
11088.0,0.0
11092.0,0.0
11096.0,0.0
11100.0,0.0
11104.0,0.0
11108.0,0.0
11112.0,0.0
11116.0,0.0
11120.0,0.0
11124.0,0.0
11128.0,0.0
11132.0,0.0
11136.0,0.0
11140.0,0.0
11144.0,0.0
11148.0,0.0
11152.0,0.0
11156.0,0.0
11160.0,0.0
11164.0,0.0
11168.0,0.0
11172.0,0.0
11176.0,0.0
11180.0,0.0
11184.0,0.0
11188.0,0.0
11192.0,0.0
11196.0,0.0
11200.0,0.0
11204.0,0.0
11208.0,-0.005049203006708072
11212.0,-0.010573667386973082
11216.0,0.004759852797737441
11220.0,0.009675380677814099
11224.0,0.022535429294136572
11228.0,-0.021679486258414177
11232.0,-0.00624773543054249
11236.0,-0.017282244685472497
11240.0,-0.0014390476191038204
11244.0,-0.0003318352207881826
11248.0,-0.007825678108648629
11252.0,0.02959305447509174
11256.0,0.04736024224673675
11260.0,0.08745005619060645
11264.0,0.12858304102324034
11268.0,0.1432113004661918
11272.0,0.15058976399450916
11276.0,0.1860849369555908
11280.0,0.183053458992057
11284.0,0.1943333487031774
11288.0,0.21073509561664425
11292.0,0.21041143353981823
11296.0,0.1929226367465728
11300.0,0.15396606098517895
11304.0,0.16155161828138825
11308.0,0.13798964119407767
11312.0,0.10284405495702009
11316.0,0.09091898569456061
11320.0,0.05252827974302146
11324.0,0.0382145847430983
11328.0,-0.012970296504562167
11332.0,-0.000695868645617255
11336.0,-0.010812488796418876
11340.0,-0.01402473235969971
11344.0,-0.02275837920891919
11348.0,0.0008099886851257914
11352.0,0.01273189295514183
11356.0,0.006996029706950127
11360.0,-0.007143739443559722
11364.0,0.013826340767281434
11368.0,-0.0030530879874800473
11372.0,-0.007024168379991625
11376.0,-0.03282910820055105
11380.0,0.0039134125377127465
11384.0,0.004608779155389299
11388.0,0.007608277613086245
11392.0,0.0079090899435329
11396.0,0.015599434924360611
11400.0,0.011934081265906735
11404.0,-0.007022304465874428
11408.0,-0.014072093772826469
11412.0,-0.039173528064454184
11416.0,-0.08697381220836313
11420.0,-0.13606230804554548
11424.0,-0.15686502553859305
11428.0,0.0018322610426855374
11432.0,0.18539450288899062
11436.0,0.37908044846204714
11440.0,0.5986375077730401
11444.0,0.7997248305436394
11448.0,0.9950073002900863
11452.0,0.8004132579647615
11456.0,0.6089029515030937
11460.0,0.4051945336213
11464.0,0.18739464879110176
11468.0,-0.0007531649517651959
11472.0,-0.09030072645308322
11476.0,-0.15860844689906398
11480.0,-0.22589116917694038
11484.0,-0.30617053127811017
11488.0,-0.23192025917656606
11492.0,-0.15845047661953404
11496.0,-0.06814339525469437
11500.0,0.007238460880467985
11504.0,0.016610688943955357
11508.0,-0.009239549273883554
11512.0,-0.004966938925617474
11516.0,0.008073506669121662
11520.0,0.0020650856092326634
11524.0,0.00226077919430775
11528.0,0.010529610788763261
11532.0,0.015599682981396067
11536.0,0.029687078638518997
11540.0,0.01093832130847172
11544.0,0.013152263624152491
11548.0,0.010266865098140574
11552.0,0.01275423560784059
11556.0,-0.024912662144022008
11560.0,0.0030128303024046545
11564.0,-0.0012619991022011527
11568.0,-0.011072106032136531
11572.0,-0.0055886559081894166
11576.0,-0.0001247254062336169
11580.0,0.0024103907836827906
11584.0,-0.003941788083096094
11588.0,0.0008819421994250483
11592.0,0.0015624422708537039
11596.0,0.005525587520511211
11600.0,-0.009304201758250951
11604.0,-0.015577068311661542
11608.0,-0.0036369308153923275
11612.0,0.039568038845895895
11616.0,0.059359810173334415
11620.0,0.08789791411882937
11624.0,0.10871182692029764
11628.0,0.14526859831123923
11632.0,0.17825720267479658
11636.0,0.2013692581233356
11640.0,0.22112044780834553
11644.0,0.24070721113338936
11648.0,0.25261289358846356
11652.0,0.26339810877243214
11656.0,0.2793673699052234
11660.0,0.29480903627431515
11664.0,0.2952513066165753
11668.0,0.2919660642866383
11672.0,0.2944618081520644
11676.0,0.2918847385120994
11680.0,0.28432828081791683
11684.0,0.27940465976771806
11688.0,0.25579561339776763
11692.0,0.24423216149369442
11696.0,0.22425339989383883
11700.0,0.20110958724238254
11704.0,0.17562582966429446
11708.0,0.14778546514204766
11712.0,0.12923514114979823
11716.0,0.07946404306441887
11720.0,0.06767826169407465
11724.0,0.02165508879864572
11728.0,0.004179216095993027
11732.0,0.009798463950171045
11736.0,0.006813875229065978
11740.0,0.0053582640086609155
11744.0,0.00046268581403572956
11748.0,0.013858816180735669
11752.0,0.0014519523713339359
11756.0,-0.007249363883073901
11760.0,0.006192895687711061
11764.0,-0.00018188094167462813
11768.0,-0.013379797913881782
11772.0,-0.01663807291758233
11776.0,0.011930116202117803
11780.0,0.002571470153748211
11784.0,0.008461515349982471
11788.0,-0.00865577483241047
11792.0,-0.015108276335396386
11796.0,-0.0063281969473674565
11800.0,-0.0034337977393733205
11804.0,0.011396853070094642
11808.0,0.0
11812.0,0.0
11816.0,0.0
11820.0,0.0
11824.0,0.0
11828.0,0.0
11832.0,0.0
11836.0,0.0
11840.0,0.0
11844.0,0.0
11848.0,0.0
11852.0,0.0
11856.0,0.0
11860.0,0.0
11864.0,0.0
11868.0,0.0
11872.0,0.0
11876.0,0.0
11880.0,0.0
11884.0,0.0
11888.0,0.0
11892.0,0.0
11896.0,0.0
11900.0,0.0
11904.0,0.0
11908.0,0.0
11912.0,0.0
11916.0,0.0
11920.0,0.0
11924.0,0.0
11928.0,0.0
11932.0,0.0
11936.0,0.0
11940.0,0.0
11944.0,0.0
11948.0,0.0
11952.0,0.0
11956.0,0.0
11960.0,0.0
11964.0,0.0
11968.0,0.0
11972.0,0.0
11976.0,0.0
11980.0,0.0
11984.0,0.0
11988.0,0.0
11992.0,0.0
11996.0,0.0
12000.0,0.0
12004.0,0.0
12008.0,0.0
12012.0,0.0
12016.0,0.0
12020.0,0.0
12024.0,-0.013269316912831968
12028.0,0.006761748098938622
12032.0,-0.01259987901620415
12036.0,0.005596003305533659
12040.0,-0.0021005320000674066
12044.0,0.00505585790528745
12048.0,0.008166032884347078
12052.0,-0.02096545696712526
12056.0,-0.0016648442441848852
12060.0,-0.012348674114410846
12064.0,-0.012511249758477288
12068.0,0.03999729900501506
12072.0,0.05513346560974395
12076.0,0.10928045465879149
12080.0,0.10844326606907012
12084.0,0.15403567231591728
12088.0,0.1598564393979561
12092.0,0.17487983341875496
12096.0,0.19177719541152502
12100.0,0.1964539262824863
12104.0,0.1906755480214792
12108.0,0.2136091650115943
12112.0,0.20605321047081782
12116.0,0.16351687248126326
12120.0,0.1731689235229923
12124.0,0.12750522982612086
12128.0,0.13649351722798722
12132.0,0.09796332425325326
12136.0,0.06668728982911187
12140.0,0.03294991351960437
12144.0,0.005292091687173226
12148.0,0.009855139072861745
12152.0,-0.014018590559311222
12156.0,-0.0010381095807011497
12160.0,0.01086476348122363
12164.0,-0.00386919328885836
12168.0,0.011688419455463435
12172.0,0.000832157728767842
12176.0,0.010610691970885442
12180.0,-0.005593290010577886
12184.0,0.0161279199631298
12188.0,0.0010244645723736165
12192.0,-0.008547350691261996
12196.0,0.007198087435789859
12200.0,-0.0056047225678910444
12204.0,0.017712955288908514
12208.0,0.004962241567466852
12212.0,0.004173777758828692
12216.0,0.009125913556348984
12220.0,-3.334108725198552e-05
12224.0,0.0017326155426722891
12228.0,-0.036749280247905775
12232.0,-0.06772534861639559
12236.0,-0.12043568541809119
12240.0,-0.15852258375556397
12244.0,0.010369909085952072
12248.0,0.19405010499921094
12252.0,0.3972333455336347
12256.0,0.6035360833592979
12260.0,0.8137590993266081
12264.0,0.9800161521824716
12268.0,0.7904978187736824
12272.0,0.5968001851350331
12276.0,0.40826025550799544
12280.0,0.19268532368983726
12284.0,0.004572566355068484
12288.0,-0.0828992835908579
12292.0,-0.16793343463707228
12296.0,-0.21823078938503435
12300.0,-0.30846263307958177
12304.0,-0.2356611546976376
12308.0,-0.1457153031207369
12312.0,-0.09467778588422633
12316.0,-0.0022445840233784025
12320.0,0.010369298078258402
12324.0,-0.0019327337599809626
12328.0,-0.0066210583367931584
12332.0,0.005473993519853035
12336.0,0.005772523369595118
12340.0,0.01451433010177208
12344.0,0.013254530851055555
12348.0,-0.014503199602889143
12352.0,-0.0009847875291577577
12356.0,-0.008457761051953746
12360.0,-0.0025089299025025636
12364.0,-0.02123398582122363
12368.0,0.004352319309130027
12372.0,-0.008280172501711263
12376.0,-0.0031766686304978
12380.0,0.0023966413800267194
12384.0,0.012577349034103782
12388.0,-0.018719597701820693
12392.0,-0.004673272093764987
12396.0,-0.008219998786014635
12400.0,0.012668403952176662
12404.0,-0.006912952541108452
12408.0,0.003936079954082459
12412.0,-0.010302210915281874
12416.0,0.013141113420357092
12420.0,-0.010306813599937277
12424.0,0.004112579455896902
12428.0,0.041113376924850176
12432.0,0.08589749884381963
12436.0,0.08990454241775314
12440.0,0.1270661519419109
12444.0,0.1544665007782482
12448.0,0.15646496565344772
12452.0,0.18788830974856333
12456.0,0.21592114019605507
12460.0,0.24673332364533032
12464.0,0.26280015302647614
12468.0,0.2869183589604342
12472.0,0.28832202124095263
12476.0,0.29455287136761266
12480.0,0.29071994431325304
12484.0,0.3037392213404687
12488.0,0.2938856484775082
12492.0,0.281640158955635
12496.0,0.29503108100780434
12500.0,0.27486141606735576
12504.0,0.25792843762562545
12508.0,0.24405960779595826
12512.0,0.2117357811168473
12516.0,0.21564214839139886
12520.0,0.20238953341187854
12524.0,0.1473088975461247
12528.0,0.125967543281571
12532.0,0.1007389348051961
12536.0,0.059380892270470026
12540.0,0.03919720484366307
12544.0,-0.02209167895842047
12548.0,0.020362847141532612
12552.0,0.006012773524908981
12556.0,0.010828441577659378
12560.0,-0.00021011419345492313
12564.0,-0.014346544890599462
12568.0,-0.015393657043064812
12572.0,0.002795264465688345
12576.0,-0.0042674272418374
12580.0,-0.007800559941620717
12584.0,-0.0023788862907017654
12588.0,0.01909521785092855
12592.0,0.005764473398916665
12596.0,-0.01830115523028241
12600.0,-0.0023141814845771156
12604.0,-0.0009995056695122299
12608.0,-0.01426449193132507
12612.0,0.005257318871089025
12616.0,0.016531261457584413
12620.0,0.0021221964014138694
12624.0,0.0
12628.0,0.0
12632.0,0.0
12636.0,0.0
12640.0,0.0
12644.0,0.0
12648.0,0.0
12652.0,0.0
12656.0,0.0
12660.0,0.0
12664.0,0.0
12668.0,0.0
12672.0,0.0
12676.0,0.0
12680.0,0.0
12684.0,0.0
12688.0,0.0
12692.0,0.0
12696.0,0.0
12700.0,0.0
12704.0,0.0
12708.0,0.0
12712.0,0.0
12716.0,0.0
12720.0,0.0
12724.0,0.0
12728.0,0.0
12732.0,0.0
12736.0,0.0
12740.0,0.0
12744.0,0.0
12748.0,0.0
12752.0,0.0
12756.0,0.0
12760.0,0.0
12764.0,0.0
12768.0,0.0
12772.0,0.0
12776.0,0.0
12780.0,0.0
12784.0,0.0
12788.0,0.0
12792.0,0.0
12796.0,0.0
12800.0,0.0
12804.0,-0.004646563839246635
12808.0,-0.006149412124567392
12812.0,0.009284906061184308
12816.0,-0.0034524464406856244
12820.0,-0.007636930161892447
12824.0,0.0018829245103847206
12828.0,0.020498295761177798
12832.0,-0.0022978428219858986
12836.0,-0.005754117292875568
12840.0,0.007940637236436131
12844.0,-0.01767309850579702
12848.0,0.043098663485728265
12852.0,0.05322414124480895
12856.0,0.08906221263537634
12860.0,0.12335697238784636
12864.0,0.13104604699145514
12868.0,0.15047885420250787
12872.0,0.17320366209808266
12876.0,0.18383208961603226
12880.0,0.19811927727841902
12884.0,0.20051605716819554
12888.0,0.20969719426045885
12892.0,0.19058062877485923
12896.0,0.17303589525698465
12900.0,0.16413919343262773
12904.0,0.14269817364060539
12908.0,0.11476794140614834
12912.0,0.08855089444009522
12916.0,0.07281487828511006
12920.0,0.026976459171323314
12924.0,-0.0054743225669147645
12928.0,-0.0031049869698554456
12932.0,-0.0022294446926343224
12936.0,-0.0003709652529431222
12940.0,0.008070193836144478
12944.0,0.004032010605799892
12948.0,-0.002555750256811191
12952.0,0.008572127280706976
12956.0,0.00028616937768661865
12960.0,0.0010018074616486383
12964.0,0.007113987688999008
12968.0,-0.0024749956557421553
12972.0,0.003851539577867856
12976.0,-0.006913677150618757
12980.0,0.005381865070978736
12984.0,-0.009339505746831888
12988.0,0.006714079970331459
12992.0,0.006740037401167854
12996.0,-0.0019512485519256918
13000.0,-0.004633354931550623
13004.0,-0.009218464291531468
13008.0,-0.042243553528647705
13012.0,-0.08729268191944783
13016.0,-0.11357452899640944
13020.0,-0.1507580169649576
13024.0,-0.012678709461856319
13028.0,0.19249489866975122
13032.0,0.39132551798323995
13036.0,0.595316267798968
13040.0,0.8129665619791662
13044.0,1.0228507559165956
13048.0,0.8036004158634269
13052.0,0.6038566803035798
13056.0,0.3898903234885312
13060.0,0.21074283748502376
13064.0,-0.005965725140697185
13068.0,-0.07780179043608994
13072.0,-0.15835053537255647
13076.0,-0.2252672218098056
13080.0,-0.28957101447684663
13084.0,-0.22566779295927428
13088.0,-0.13490488853868604
13092.0,-0.06862099232924375
13096.0,0.008576614508109356
13100.0,-0.0014118590715440555
13104.0,0.0038026630654732756
13108.0,-0.008297655263912851
13112.0,-0.0011385436995692121
13116.0,0.004729747690299475
13120.0,-0.002206716307975515
13124.0,0.01595681092358109
13128.0,-0.016161903629621825
13132.0,-0.0013810666159093086
13136.0,-0.015362216879407762
13140.0,-0.015791936470184016
13144.0,0.004692352536176925
13148.0,0.007302706790437098
13152.0,-0.005463263547980606
13156.0,0.0012289424186423196
13160.0,-0.00921621918782898
13164.0,-0.0029241906680397495
13168.0,0.003125622792181222
13172.0,0.0036540306007593103
13176.0,-0.016318775782306786
13180.0,0.0053159259715906595
13184.0,-0.00990114879002836
13188.0,0.002265002190847912
13192.0,0.006685622434778231
13196.0,-0.017040610939170128
13200.0,0.00648235763880449
13204.0,0.011341995280240926
13208.0,0.020793930640425957
13212.0,0.06102010895493998
13216.0,0.09621232363691824
13220.0,0.14124854174044893
13224.0,0.15064965846335066
13228.0,0.17195096980429156
13232.0,0.21025017979035374
13236.0,0.22434908404869477
13240.0,0.23586201510629304
13244.0,0.25890063250732986
13248.0,0.27840012321107743
13252.0,0.2820975718104456
13256.0,0.2756784980945718
13260.0,0.3041327325226789
13264.0,0.2907662437912639
13268.0,0.290215558060232
13272.0,0.29091790599053763
13276.0,0.27034700395115635
13280.0,0.2816802046909891
13284.0,0.2549028046951466
13288.0,0.24461887567890733
13292.0,0.22847919556247392
13296.0,0.19000234090845747
13300.0,0.1809932099660086
13304.0,0.141624387514652
13308.0,0.12198994697547084
13312.0,0.07759957331846548
13316.0,0.06739107273467528
13320.0,0.03674673275724666
13324.0,0.014852154379631681
13328.0,-0.0043432813818733845
13332.0,0.0028735440056735736
13336.0,-0.0048977866591836845
13340.0,0.004824662292027172
13344.0,-0.006516127739526669
13348.0,0.005182008493858435
13352.0,-0.0009055335320033153
13356.0,0.00309264511608927
13360.0,-0.005759796923792741
13364.0,-0.0005603187936880876
13368.0,-0.002150811135013855
13372.0,-0.008565900606890574
13376.0,0.007058964032118652
13380.0,0.00832218773821115
13384.0,3.887396797620334e-05
13388.0,0.005533671433903876
13392.0,0.01256985491704486
13396.0,-0.01690959126895385
13400.0,-0.018163484288255163
13404.0,0.0
13408.0,0.0
13412.0,0.0
13416.0,0.0
13420.0,0.0
13424.0,0.0
13428.0,0.0
13432.0,0.0
13436.0,0.0
13440.0,0.0
13444.0,0.0
13448.0,0.0
13452.0,0.0
13456.0,0.0
13460.0,0.0
13464.0,0.0
13468.0,0.0
13472.0,0.0
13476.0,0.0
13480.0,0.0
13484.0,0.0
13488.0,0.0
13492.0,0.0
13496.0,0.0
13500.0,0.0
13504.0,0.0
13508.0,0.0
13512.0,0.0
13516.0,0.0
13520.0,0.0
13524.0,0.0
13528.0,0.0
13532.0,0.0
13536.0,0.0
13540.0,0.0
13544.0,0.0
13548.0,0.0
13552.0,0.0
13556.0,0.0
13560.0,0.0
13564.0,0.0
13568.0,0.0
13572.0,0.0
13576.0,0.0
13580.0,0.0
13584.0,0.0
13588.0,0.0
13592.0,0.0
13596.0,0.0
13600.0,0.0
13604.0,0.0
13608.0,0.0
13612.0,0.0
13616.0,0.0
13620.0,0.0
13624.0,0.0
13628.0,0.0
13632.0,0.0
13636.0,0.009861412806249243
13640.0,-0.0020394303484925934
13644.0,-0.007799644644717499
13648.0,0.0076236956733005705
13652.0,-0.005813689603812987
13656.0,0.0052167578719896695
13660.0,-0.005007289553736713
13664.0,0.010492897645899966
13668.0,0.0010555728072976797
13672.0,0.005611166672490874
13676.0,0.002680274325377015
13680.0,0.029256838920757793
13684.0,0.07160601748569449
13688.0,0.09195774938447669
13692.0,0.11780294656917814
13696.0,0.13600919602847167
13700.0,0.15515804918295711
13704.0,0.17636419291148844
13708.0,0.18843823155637487
13712.0,0.20315696286024945
13716.0,0.19922214419980844
13720.0,0.2099697887029597
13724.0,0.19729977012151054
13728.0,0.17045281000859827
13732.0,0.1420764215324604
13736.0,0.14976583452343123
13740.0,0.11978865435389034
13744.0,0.08585717341615788
13748.0,0.05416843876127203
13752.0,0.05878103766342957
13756.0,0.0008838154993088205
13760.0,0.009696101982572815
13764.0,0.013611616681056293
13768.0,0.005183430530489747
13772.0,0.01700361763417425
13776.0,0.005429069865054254
13780.0,0.005474764162775398
13784.0,0.002281617465298853
13788.0,-0.0041084457273432955
13792.0,0.008017919748676586
13796.0,0.003810177958320046
13800.0,0.0050218566697742915
13804.0,-0.0017028578467708079
13808.0,0.00013074347783874565
13812.0,-0.015666419675330907
13816.0,-0.005409279407300398
13820.0,0.007560260300089172
13824.0,0.0010961145624576196
13828.0,0.014799860103790613
13832.0,0.0015572666801140535
13836.0,-0.00026525419122610584
13840.0,-0.03904968080658632
13844.0,-0.07240266722748265
13848.0,-0.12849360447959107
13852.0,-0.16498706528770696
13856.0,-0.011702541878967652
13860.0,0.19992670086857037
13864.0,0.40629098455199636
13868.0,0.5972661238028754
13872.0,0.8285228891074303
13876.0,0.9962517216906533
13880.0,0.7912912882931812
13884.0,0.6124525514343947
13888.0,0.3933917252740449
13892.0,0.18843780903152363
13896.0,-0.012375213124201142
13900.0,-0.07067550398518457
13904.0,-0.14505154002837894
13908.0,-0.226095565556907
13912.0,-0.2978484966089956
13916.0,-0.22781002765552888
13920.0,-0.1487964825122592
13924.0,-0.09457903666911625
13928.0,-0.011730593295429654
13932.0,-0.004480804867807581
13936.0,0.0004386426793291387
13940.0,0.009096930368709705
13944.0,0.010526437278364408
13948.0,-0.009353413197329422
13952.0,0.004110639683311245
13956.0,0.0055257806019558256
13960.0,0.01643178686149317
13964.0,-0.0019626728594414446
13968.0,-0.01812175453484406
13972.0,-0.0009069679095575147
13976.0,-0.012674262111906483
13980.0,-0.01115491521379432
13984.0,0.010060697329081688
13988.0,-0.004101434520911202
13992.0,0.0028262978381012743
13996.0,-0.0073428255026703184
14000.0,0.005114651957789377
14004.0,0.000685179957450251
14008.0,0.004686721606928917
14012.0,-0.004006042016502462
14016.0,-0.021654153590289972
14020.0,0.026448037885927655
14024.0,0.0010039283732100263
14028.0,-0.002096413165530794
14032.0,0.004986010815443393
14036.0,0.007108826086792435
14040.0,0.027125833179725743
14044.0,0.07349816792916443
14048.0,0.0995424962204129
14052.0,0.10905158124784216
14056.0,0.13411453833992024
14060.0,0.1779826823187363
14064.0,0.21134445830152704
14068.0,0.21382843745677316
14072.0,0.25441432155953836
14076.0,0.2827698158069709
14080.0,0.2439401031935836
14084.0,0.29072400162569156
14088.0,0.31846077899022246
14092.0,0.3017177838135068
14096.0,0.3203117264504892
14100.0,0.30160015824694164
14104.0,0.28009564132729253
14108.0,0.28339409369383445
14112.0,0.25918729990199074
14116.0,0.2576896588059629
14120.0,0.2534423946818173
14124.0,0.21304191400589714
14128.0,0.20329109013947494
14132.0,0.16714672922477547
14136.0,0.15692392647859144
14140.0,0.11087501837905075
14144.0,0.08204250677681355
14148.0,0.058353377979380006
14152.0,0.02907205421988934
14156.0,0.01431335002137672
14160.0,0.015413545165794523
14164.0,-0.00857809372511517
14168.0,0.00045945139698480103
14172.0,-0.008536879774558439
14176.0,0.007796992765893696
14180.0,-0.009167959787229766
14184.0,-0.0011890945190005432
14188.0,0.0014958113998593825
14192.0,-0.0010110811914248645
14196.0,0.007421799263681865
14200.0,0.0030466166400269935
14204.0,0.0024464069689715206
14208.0,0.006346574284584246
14212.0,0.0035570964000900523
14216.0,0.003786210728592196
14220.0,-0.0028702485763140734
14224.0,-0.015571342434329243
14228.0,-0.00984860520015226
14232.0,-0.009173279140218815
14236.0,0.0
14240.0,0.0
14244.0,0.0
14248.0,0.0
14252.0,0.0
14256.0,0.0
14260.0,0.0
14264.0,0.0
14268.0,0.0
14272.0,0.0
14276.0,0.0
14280.0,0.0
14284.0,0.0
14288.0,0.0
14292.0,0.0
14296.0,0.0
14300.0,0.0
14304.0,0.0
14308.0,0.0
14312.0,0.0
14316.0,0.0
14320.0,0.0
14324.0,0.0
14328.0,0.0
14332.0,0.0
14336.0,0.0
14340.0,0.0
14344.0,0.0
14348.0,0.0
14352.0,0.0
14356.0,0.0
14360.0,0.0
14364.0,0.0
14368.0,0.0
14372.0,0.0
14376.0,0.0
14380.0,0.0
14384.0,0.0
14388.0,0.0
14392.0,0.0
14396.0,0.0
14400.0,0.0
14404.0,0.0
14408.0,0.0
14412.0,0.0
14416.0,0.0
14420.0,0.0
14424.0,0.0
14428.0,0.0
14432.0,0.0
14436.0,0.0
14440.0,0.0
14444.0,0.0
14448.0,0.0
14452.0,0.0
14456.0,0.0
14460.0,0.0
14464.0,0.0
14468.0,0.0
14472.0,0.0
14476.0,0.0
14480.0,0.0
14484.0,0.0
14488.0,0.0
14492.0,0.0
14496.0,0.002546893987793746
14500.0,-0.001178954310989971
14504.0,0.005286584770787205
14508.0,-0.011718834614347258
14512.0,0.022299085712389914
14516.0,-0.0021218889261350035
14520.0,-0.005439138576678818
14524.0,-0.01911418975626085
14528.0,-0.006540233899746637
14532.0,0.00813129228735809
14536.0,0.006169503813929516
14540.0,0.020748344989319163
14544.0,0.08054086698612378
14548.0,0.08957344834982375
14552.0,0.11891336318258866
14556.0,0.14920417967645166
14560.0,0.16254556163799247
14564.0,0.1776496039193269
14568.0,0.19113503743360236
14572.0,0.201111430082589
14576.0,0.18696569152107673
14580.0,0.20552702174570403
14584.0,0.17676207710220884
14588.0,0.18975009574049048
14592.0,0.1525350860696556
14596.0,0.14283441897985316
14600.0,0.12124348922172555
14604.0,0.10289580612317409
14608.0,0.04597381142319665
14612.0,0.04182729371586724
14616.0,-0.0018916820431203758
14620.0,-0.0007640851149568001
14624.0,-0.00042008364840693066
14628.0,0.005930158907977633
14632.0,-0.011392690635233346
14636.0,0.003830142771217193
14640.0,0.010051376182737184
14644.0,-0.004095004211898068
14648.0,0.01940831445392953
14652.0,0.005169655029351063
14656.0,0.006008682675355318
14660.0,-0.0025989845862608822
14664.0,-0.001324524773580171
14668.0,0.0014815298674844893
14672.0,-0.0040915078176973
14676.0,0.006566999930631728
14680.0,0.006777479741995098
14684.0,-0.0016116824741211181
14688.0,0.001138126043498368
14692.0,0.011430144353170328
14696.0,0.010479337057181416
14700.0,-0.035285134185658415
14704.0,-0.08159575642686091
14708.0,-0.1119725188111014
14712.0,-0.1628544411912625
14716.0,0.009528047154198188
14720.0,0.21158410065232108
14724.0,0.38882091210842396
14728.0,0.5946976496286943
14732.0,0.8056517520169283
14736.0,0.9963498255174922
14740.0,0.8076211349162271
14744.0,0.6003196611808613
14748.0,0.3966412838674221
14752.0,0.20881630105642782
14756.0,0.0028432204363133097
14760.0,-0.07317264160620118
14764.0,-0.1618119396608094
14768.0,-0.22120916267568905
14772.0,-0.28999678868353035
14776.0,-0.2219861231607276
14780.0,-0.129657537515831
14784.0,-0.06282715616775486
14788.0,-0.0079092067773893
14792.0,0.0011185404058699994
14796.0,0.003539139308638194
14800.0,-0.007162402151073295
14804.0,-0.006208504500592561
14808.0,0.0029680314187633316
14812.0,0.0036023951268634303
14816.0,-0.006935477358711081
14820.0,0.008001903224323146
14824.0,0.005907442536114278
14828.0,0.009043087008701078
14832.0,-0.007824413704157054
14836.0,-0.0023535817124499046
14840.0,-0.0019704324989781806
14844.0,-0.007826781060937798
14848.0,0.00043599359242260557
14852.0,-0.001957574527650762
14856.0,-0.003242345507991718
14860.0,-0.0075272707931172455
14864.0,0.00167499989354617
14868.0,0.01127121158127978
14872.0,-0.0028967707943766043
14876.0,0.011395602792030064
14880.0,-0.001630868101073551
14884.0,-0.005576667146722371
14888.0,0.0097486633116337
14892.0,0.009224791188406318
14896.0,0.0027453719959777702
14900.0,0.03761095584218503
14904.0,0.06610077220369874
14908.0,0.09891714647962273
14912.0,0.11503158786552226
14916.0,0.14563386937678752
14920.0,0.17637087753053418
14924.0,0.2094563086181592
14928.0,0.22167877773526726
14932.0,0.22765220440787406
14936.0,0.2754730831279753
14940.0,0.2872579496694847
14944.0,0.28295550095302086
14948.0,0.29599366073008543
14952.0,0.29362960603282945
14956.0,0.3012553628970888
14960.0,0.28661348749255855
14964.0,0.30284886115811066
14968.0,0.30033000664182297
14972.0,0.26770795860956825
14976.0,0.2504420388664998
14980.0,0.2234649976175075
14984.0,0.23704907906450295
14988.0,0.19821182507756022
14992.0,0.17628079617817127
14996.0,0.14638420310808878
15000.0,0.1230307465595534
15004.0,0.09794502537366358
15008.0,0.06366604991978797
15012.0,0.02230143554323203
15016.0,0.0008621520216080784
15020.0,0.005325616644305674
15024.0,0.025486010449882645
15028.0,0.010770981419728574
15032.0,0.0028828087411230338
15036.0,0.016512115779925035
15040.0,-0.006369274614775372
15044.0,0.01580291674733812
15048.0,0.0054363262648804206
15052.0,0.012750190647955177
15056.0,-0.015085275933948483
15060.0,0.0033658062611992136
15064.0,0.014757939177794683
15068.0,-0.009134796041592197
15072.0,-0.016988162016325244
15076.0,0.014685979726865075
15080.0,0.009734496287386749
15084.0,-0.0003210080952023049
15088.0,-0.005866802719766773
15092.0,-0.0020599252545978395
15096.0,0.0
15100.0,0.0
15104.0,0.0
15108.0,0.0
15112.0,0.0
15116.0,0.0
15120.0,0.0
15124.0,0.0
15128.0,0.0
15132.0,0.0
15136.0,0.0
15140.0,0.0
15144.0,0.0
15148.0,0.0
15152.0,0.0
15156.0,0.0
15160.0,0.0
15164.0,0.0
15168.0,0.0
15172.0,0.0
15176.0,0.0
15180.0,0.0
15184.0,0.0
15188.0,0.0
15192.0,0.0
15196.0,0.0
15200.0,0.0
15204.0,0.0
15208.0,0.0
15212.0,0.0
15216.0,0.0
15220.0,0.0
15224.0,0.0
15228.0,0.0
15232.0,0.0
15236.0,0.0
15240.0,0.0
15244.0,0.0
15248.0,0.0
15252.0,0.0
15256.0,0.0
15260.0,0.0
15264.0,0.0
15268.0,0.0
15272.0,0.0
15276.0,0.0
15280.0,0.0
15284.0,0.0
15288.0,-0.015308407717877334
15292.0,0.008725508797737853
15296.0,-0.008873034370738171
15300.0,-0.012555878494872191
15304.0,0.014861692865706275
15308.0,-0.015028088540456754
15312.0,-0.02280673186778808
15316.0,0.0026311420196905595
15320.0,-0.019511519814448867
15324.0,0.0038157927845961495
15328.0,0.015866746770754545
15332.0,0.053810309122736794
15336.0,0.05176431432077362
15340.0,0.09205403232273661
15344.0,0.11034356514433383
15348.0,0.1575672661960144
15352.0,0.15131909013920058
15356.0,0.18131404549116087
15360.0,0.20604354068488792
15364.0,0.1811146057803433
15368.0,0.21054682873084932
15372.0,0.1982135365451933
15376.0,0.1973060025173461
15380.0,0.17520851313308836
15384.0,0.15679294553338674
15388.0,0.1388962676591142
15392.0,0.12442244625414386
15396.0,0.09722167173094023
15400.0,0.0668596498885839
15404.0,0.03278334885574978
15408.0,-0.006062968052951003
15412.0,0.01813994061947414
15416.0,0.0006549048937383007
15420.0,-0.005132138523867382
15424.0,0.014667391900184684
15428.0,-0.0031526712888788134
15432.0,-0.00567678083161547
15436.0,0.002812255027141993
15440.0,0.00506481564763924
15444.0,-0.0017798687450413565
15448.0,0.0043233126563445275
15452.0,-0.004679769520225072
15456.0,0.0005750247535937439
15460.0,0.008351876807953124
15464.0,0.002801641029839702
15468.0,-0.010374227838573405
15472.0,0.02968167879383636
15476.0,8.136756897852999e-05
15480.0,-0.006945022333844567
15484.0,0.0006729644270764964
15488.0,-0.013271130056229359
15492.0,-0.05075402937796703
15496.0,-0.06287366278464791
15500.0,-0.12524226376846867
15504.0,-0.17918207050864463
15508.0,0.002520421718946944
15512.0,0.20272008842418257
15516.0,0.40111293335881987
15520.0,0.5918204138067571
15524.0,0.7984736105331369
15528.0,1.0045838590525749
15532.0,0.7995696001119598
15536.0,0.6100735611308176
15540.0,0.3906571341230891
15544.0,0.1885954807967391
15548.0,-0.017196455784332685
15552.0,-0.08412461363110567
15556.0,-0.14092668287082066
15560.0,-0.2461454306286545
15564.0,-0.28956175729041095
15568.0,-0.2241399823073815
15572.0,-0.13931046331526764
15576.0,-0.06281603772140516
15580.0,0.0013640345767512746
15584.0,-0.01566607567791079
15588.0,0.0063320821840286284
15592.0,0.005421197110714668
15596.0,0.003972796426762952
15600.0,0.020228779385651322
15604.0,0.019207989560296308
15608.0,0.0026952994446350744
15612.0,0.004437862422388047
15616.0,0.003581271296840406
15620.0,-7.597072018242996e-05
15624.0,-0.008759880368191236
15628.0,0.0067337557458883104
15632.0,0.011836041923754731
15636.0,-0.005826353121347756
15640.0,-0.0009843133657623064
15644.0,-0.001180622413477137
15648.0,-0.006852795665255904
15652.0,-0.006398237691716256
15656.0,-0.005572379455606226
15660.0,-0.007582984878129908
15664.0,0.016329961764492022
15668.0,-0.015694265887941258
15672.0,0.006135465503423554
15676.0,0.008890593885226557
15680.0,-0.0030225170891478356
15684.0,0.014108707697029524
15688.0,0.0005906793336682094
15692.0,0.027910258494394963
15696.0,0.07802399873113162
15700.0,0.09969498536592576
15704.0,0.1363122429063804
15708.0,0.14870843569262449
15712.0,0.1645218546303267
15716.0,0.20010866940070915
15720.0,0.2185288078960543
15724.0,0.23356337698825563
15728.0,0.26410445182568054
15732.0,0.2819008099134134
15736.0,0.2877922071993042
15740.0,0.27565407272593195
15744.0,0.3064716728819185
15748.0,0.2834306296455537
15752.0,0.3000954599113105
15756.0,0.28759068366201235
15760.0,0.2827626453955519
15764.0,0.278775755569953
15768.0,-0.0034972122363049465
15772.0,-0.01788004352217473
15776.0,0.00011512574709942754
15780.0,-0.00942656975523298
15784.0,0.007505261179134324
15788.0,-0.014293664956025272
15792.0,0.0356064085232518
15796.0,-0.01822046689362393
15800.0,0.021871428289286694
15804.0,-0.0020075685667056502
15808.0,0.007227500572239768
15812.0,0.05556831288188066
15816.0,0.051106140961327
15820.0,0.0912246519333061
15824.0,0.12080998969559767
15828.0,0.15748545401807168
15832.0,0.16360196042442623
15836.0,0.1811562073175675
15840.0,0.18557960153465963
15844.0,0.18524003619468163
15848.0,0.19232675402884197
15852.0,0.21481793926347675
15856.0,0.1786643699319632
15860.0,0.1790047815515617
15864.0,0.15572785387564408
15868.0,0.1586637667778698
15872.0,0.1298750348375224
15876.0,0.07576530717517911
15880.0,0.0544499129676415
15884.0,0.02161829647961952
15888.0,0.003094771456893259
15892.0,-0.013129133766403765
15896.0,0.013142198088068952
15900.0,-0.012962586809759294
15904.0,-0.011336197249379548
15908.0,-0.005313759092604388
15912.0,0.011277204697819086
15916.0,-0.010485526699355244
15920.0,-0.0034430637427179446
15924.0,-0.007431175112537316
15928.0,0.005821854447407491
15932.0,0.004832167079701368
15936.0,0.007032456260354665
15940.0,0.015111881350861382
15944.0,-0.013607139330610632
15948.0,-0.01489210498752364
15952.0,0.010279530499949953
15956.0,0.00023472116822727767
15960.0,0.0035373711929804026
15964.0,-0.0037252197328844386
15968.0,0.0017897460140154592
15972.0,-0.013733297494817293
15976.0,-0.07454622262651013
15980.0,-0.11383570355363024
15984.0,-0.14781790611367263
15988.0,0.001990824841146709
15992.0,0.20434493222092093
15996.0,0.4106314947032441
16000.0,0.5938595998668152
16004.0,0.7987085071518225
16008.0,0.9808614391646483
16012.0,0.7834620503198467
16016.0,0.5957633176689953
16020.0,0.39827364122148495
16024.0,0.20716295101802437
16028.0,-0.010630032180341172
16032.0,-0.0882399556037706
16036.0,-0.15768682979841392
16040.0,-0.21193099859657838
16044.0,-0.2940391794176102
16048.0,-0.2213733074954932
16052.0,-0.15506785909364199
16056.0,-0.07019384565657893
16060.0,0.009025167642471344
16064.0,0.0020584475417998512
16068.0,-0.008942063482398966
16072.0,0.009784122894088107
16076.0,-0.004624475226035381
16080.0,0.002941129255103635
16084.0,0.004133020872189399
16088.0,-0.009282164505273038
16092.0,-0.007805776055602667
16096.0,0.004728977714626651
16100.0,0.001374431718301832
16104.0,-0.0014979884581984983
16108.0,-0.02047116942446465
16112.0,-0.004373786991639908
16116.0,0.0031718652192388964
16120.0,-0.02169482530963405
16124.0,0.007480067591001317
16128.0,0.003835948678447532
16132.0,-0.0035486082805975014
16136.0,0.012193529608188034
16140.0,-0.0009530217385295789
16144.0,0.003984018386124054
16148.0,-0.009864485119153558
16152.0,0.009336263764530377
16156.0,0.0026372121664383266
16160.0,0.01242192285389772
16164.0,-0.013139585274488379
16168.0,0.005186395777135329
16172.0,0.04244466027103724
16176.0,0.051192977016059044
16180.0,0.10520043703689906
16184.0,0.12306518503094739
16188.0,0.15829627899675974
16192.0,0.16894604986638684
16196.0,0.18817764543347942
16200.0,0.22572278750362956
16204.0,0.22966413600668176
16208.0,0.2499562552949498
16212.0,0.26143714296449105
16216.0,0.29335613503877955
16220.0,0.30997340503936577
16224.0,0.2888314118574119
16228.0,0.3051998335886028
16232.0,0.30282355581625153
16236.0,0.3064536594735024
16240.0,0.2704364998067502
16244.0,0.2712904356393439
16248.0,-0.034201218180646906
16252.0,0.007882007076364278
16256.0,0.007685288358852935
16260.0,-0.004082097409772772
16264.0,-0.003809354041792984
16268.0,0.00936509745636511
16272.0,0.009678334219944738
16276.0,0.0038049301628815257
16280.0,-0.006065841445295156
16284.0,-0.0049118957039128676
16288.0,-0.005383050721115258
16292.0,0.03125670954232998
16296.0,0.05419376488901256
16300.0,0.09579971902317826
16304.0,0.12720480550662616
16308.0,0.14459776266074617
16312.0,0.16087461486185337
16316.0,0.16482861271100283
16320.0,0.21475173767427413
16324.0,0.19784059443033084
16328.0,0.1953744311341694
16332.0,0.17288027180212126
16336.0,0.16998467160109554
16340.0,0.17615161617040853
16344.0,0.18574565796067655
16348.0,0.12780453221593677
16352.0,0.11201393407664867
16356.0,0.08292027385353068
16360.0,0.055413546110713176
16364.0,0.03902913664839308
16368.0,-0.0030988395327062605
16372.0,-0.013090147118018952
16376.0,-0.008112634421253177
16380.0,-0.015373936351051574
16384.0,-0.012038681581621774
16388.0,0.013232163671057616
16392.0,0.0026091806435503185
16396.0,0.005192230835758116
16400.0,0.006079654099969001
16404.0,-0.013726502097699694
16408.0,-0.006876681655985666
16412.0,0.0014423993568589285
16416.0,0.013615003199748892
16420.0,0.003919135224211049
16424.0,0.008004085082486557
16428.0,0.007949887178481201
16432.0,0.008621980886663678
16436.0,0.004707501406849334
16440.0,0.016989401449063534
16444.0,-0.005496400981273833
16448.0,0.005529096006101853
16452.0,-0.02935534148367603
16456.0,-0.0811081894317918
16460.0,-0.11659799627972675
16464.0,-0.15785488539564876
16468.0,0.023972636564299016
16472.0,0.19330743140067863
16476.0,0.39953179252928933
16480.0,0.6029220132738448
16484.0,0.7959854100231821
16488.0,1.0122328911137535
16492.0,0.8014529000392256
16496.0,0.5938407354456735
16500.0,0.39992281555715126
16504.0,0.20285812737158013
16508.0,0.01519384504251701
16512.0,-0.07488411936405469
16516.0,-0.15648459863801276
16520.0,-0.23201351424837918
16524.0,-0.30545853901955045
16528.0,-0.23032154347625514
16532.0,-0.16026346896321042
16536.0,-0.07771758074143831
16540.0,0.009197824402789337
16544.0,0.007632788536431534
16548.0,-0.0046709810613584845
16552.0,-0.016398175620059283
16556.0,0.006618193977673305
16560.0,0.012289657498114337
16564.0,-0.0042824399027183435
16568.0,0.010423199049125385
16572.0,0.001692669705787433
16576.0,-0.005959815438908397
16580.0,0.0027762400007089595
16584.0,0.00043485351528048784
16588.0,0.006590672139005716
16592.0,-0.008542311439468013
16596.0,-0.001043271154625002
16600.0,0.010464201861317064
16604.0,-0.0044621341464498535
16608.0,0.007948696389684177
16612.0,-0.015341527007429356
16616.0,0.011982801878751016
16620.0,0.008664961446286123
16624.0,0.008784395998631601
16628.0,-0.013517346568541611
16632.0,-0.008597757319541856
16636.0,-8.070525713700217e-05
16640.0,-0.004621797008542152
16644.0,-0.003800244019253668
16648.0,0.003161265621708252
16652.0,0.03031545748710523
16656.0,0.06087945091781058
16660.0,0.08943247138571309
16664.0,0.12415898518442596
16668.0,0.14497914363783226
16672.0,0.17799589155135304
16676.0,0.1825677977038511
16680.0,0.22926837929367547
16684.0,0.24396989638148509
16688.0,0.2608750107223947
16692.0,0.2779731330538539
16696.0,0.2817345306149263
16700.0,0.2918313990749791
16704.0,0.2952309799647414
16708.0,0.2909290344042312
16712.0,0.3052488091390055
16716.0,0.2989493554792011
16720.0,0.29332962226250997
16724.0,0.2642904976221028
16728.0,0.2743193275054175
16732.0,0.24409751623325
16736.0,0.22693445220721636
16740.0,0.2117841331960807
16744.0,0.18313744860943285
16748.0,0.14034983933019848
16752.0,0.11064720228282249
16756.0,0.09932894694516939
16760.0,0.06849722288413079
16764.0,0.03191503758844707
16768.0,0.021950417347355953
16772.0,-0.007798564864440214
16776.0,-0.0036921292305852537
16780.0,-0.0030972160440351486
16784.0,0.004932980745132507
16788.0,0.011204904451685852
16792.0,0.0001946869231913866
16796.0,0.014029537035831608
16800.0,-0.002825322266032297
16804.0,-0.0009880620507071202
16808.0,-0.01257868460521952
16812.0,0.019377530366807342
16816.0,0.007218136733770787
16820.0,0.021057055798536263
16824.0,0.012597322069273127
16828.0,-0.013217223247505239
16832.0,0.010554449115416642
16836.0,-0.008400823026662438
16840.0,-0.019898870489432535
16844.0,-0.010636199107333743
16848.0,0.0
16852.0,0.0
16856.0,0.0
16860.0,0.0
16864.0,0.0
16868.0,0.0
16872.0,0.0
16876.0,0.0
16880.0,0.0
16884.0,0.0
16888.0,0.0
16892.0,0.0
16896.0,0.0
16900.0,0.0
16904.0,0.0
16908.0,0.0
16912.0,0.0
16916.0,0.0
16920.0,0.0
16924.0,0.0
16928.0,0.0
16932.0,0.0
16936.0,0.0
16940.0,0.0
16944.0,0.0
16948.0,0.0
16952.0,0.0
16956.0,0.0
16960.0,0.0
16964.0,0.0
16968.0,0.0
16972.0,0.0
16976.0,0.0
16980.0,0.0
16984.0,0.0
16988.0,0.0
16992.0,0.0
16996.0,0.0
17000.0,0.0
17004.0,0.0
17008.0,0.0
17012.0,0.0
17016.0,0.0
17020.0,0.0
17024.0,0.0
17028.0,0.0
17032.0,0.0
17036.0,0.011332853426444349
17040.0,-0.007679592141171242
17044.0,0.01908224444851773
17048.0,0.008994266802818182
17052.0,-0.015301542777930591
17056.0,-0.0120834852271414
17060.0,-0.01096811195227567
17064.0,-0.00291430878954573
17068.0,-0.01875319081146139
17072.0,-0.004010072379957473
17076.0,-0.006587612667658265
17080.0,0.013516244594582939
17084.0,0.0710597098992145
17088.0,0.09320191243887589
17092.0,0.1273198687860856
17096.0,0.14111729532511824
17100.0,0.1862563155453104
17104.0,0.18201378571808857
17108.0,0.17993339882500062
17112.0,0.19039298304102192
17116.0,0.19705230138392613
17120.0,0.20718696163340897
17124.0,0.183924697384409
17128.0,0.18466264186609488
17132.0,0.16464398079118023
17136.0,0.1288390382055373
17140.0,0.11163380218807196
17144.0,0.09939678425916232
17148.0,0.04543456703276785
17152.0,0.05239220280301729
17156.0,-0.00368963603473932
17160.0,-0.020488144914780012
17164.0,0.004607912478070019
17168.0,-0.009234177703432137
17172.0,0.01273798407465687
17176.0,-0.016472561442955273
17180.0,0.01634451324110992
17184.0,0.01997337619948457
17188.0,-0.015119718238677181
17192.0,-0.012619438127525645
17196.0,-0.01415500415989502
17200.0,0.01280991775336306
17204.0,0.005634226588143597
17208.0,0.017170699483772197
17212.0,0.036338271658095514
17216.0,-0.010665302128053517
17220.0,-0.014585069242507473
17224.0,-0.010536086824920582
17228.0,-0.003013424983264304
17232.0,-0.010575742003324722
17236.0,-0.005563753060634414
17240.0,-0.049363962602340675
17244.0,-0.06782499309900596
17248.0,-0.1148172079835085
17252.0,-0.15513280034337953
17256.0,0.008726803235988052
17260.0,0.2079935026065946
17264.0,0.3993539279976751
17268.0,0.6030146999240126
17272.0,0.803614830578539
17276.0,1.0098600542532608
17280.0,0.8132794083670045
17284.0,0.5960525293764624
17288.0,0.3951399351694043
17292.0,0.2002784483960645
17296.0,0.0055161302043082415
17300.0,-0.09215141314263861
17304.0,-0.16934990881058692
17308.0,-0.22267209601844948
17312.0,-0.3113824589223355
17316.0,-0.23357289567410566
17320.0,-0.1592616910848373
17324.0,-0.07060639744383743
17328.0,0.006285488148957156
17332.0,-0.00012059925731350858
17336.0,-0.005669190982800086
17340.0,0.009044874208282386
17344.0,-0.0023632959558073695
17348.0,0.00362660502161299
17352.0,-0.008449842692272851
17356.0,-0.001486550373952018
17360.0,-0.0008303159505315409
17364.0,-0.0069862893727390945
17368.0,-0.0004193082190003144
17372.0,-0.001730451575376791
17376.0,-0.012734948460975629
17380.0,0.01854241972310462
17384.0,-0.0014889071403600771
17388.0,0.009446409346445517
17392.0,-6.195211481625247e-05
17396.0,0.007688509819984975
17400.0,0.01529989095055095
17404.0,0.01420049067112437
17408.0,-0.00025820324515875753
17412.0,-0.010319831032056795
17416.0,-0.00010018409932220346
17420.0,-0.0016262737517310439
17424.0,0.012939655793193991
17428.0,-0.005822501318142547
17432.0,0.005608975912356594
17436.0,0.010944532119662525
17440.0,0.017896149183117355
17444.0,0.0666461002735014
17448.0,0.09435086013018064
17452.0,0.1205619350323822
17456.0,0.1585874220113902
17460.0,0.16453212368063533
17464.0,0.20084646476753826
17468.0,0.23015980299087244
17472.0,0.23996771073439047
17476.0,0.24201537022707964
17480.0,0.2756207561474716
17484.0,0.28197238172960626
17488.0,0.2996724253103011
17492.0,0.2847140139908305
17496.0,0.29070769692401655
17500.0,0.29447455865832384
17504.0,0.28515975396757104
17508.0,0.2754959909377623
17512.0,0.2715382361300039
17516.0,0.24713084654458017
17520.0,0.24579264951966803
17524.0,0.22120930084462587
17528.0,0.20951435729882859
17532.0,0.17231677734350795
17536.0,0.13225526111879998
17540.0,0.11831528298329677
17544.0,0.07861923686286834
17548.0,0.05032843908493758
17552.0,0.016198515207305763
17556.0,-0.004707607753688626
17560.0,-0.006068390302438276
17564.0,0.010166327337693218
17568.0,0.005229463263551221
17572.0,0.015401020793218525
17576.0,-0.004380359334593302
17580.0,-0.018408529602137326
17584.0,-0.005199795997062026
17588.0,-0.012174629564549865
17592.0,-0.0040313509605162
17596.0,-0.0008638171954159327
17600.0,-0.007114772453977972
17604.0,0.02259852496652219
17608.0,0.02027498269450863
17612.0,-0.0001856186250196376
17616.0,0.0005230333162688582
17620.0,-0.008291337565014774
17624.0,0.011308584125204415
17628.0,0.0033521201786140993
17632.0,0.01416594898618345
17636.0,0.0
17640.0,0.0
17644.0,0.0
17648.0,0.0
17652.0,0.0
17656.0,0.0
17660.0,0.0
17664.0,0.0
17668.0,0.0
17672.0,0.0
17676.0,0.0
17680.0,0.0
17684.0,0.0
17688.0,0.0
17692.0,0.0
17696.0,0.0
17700.0,0.0
17704.0,0.0
17708.0,0.0
17712.0,0.0
17716.0,0.0
17720.0,0.0
17724.0,0.0
17728.0,0.0
17732.0,0.0
17736.0,0.0
17740.0,0.0
17744.0,0.0
17748.0,0.0
17752.0,0.0
17756.0,0.0
17760.0,0.0
17764.0,0.0
17768.0,0.0
17772.0,0.0
17776.0,0.0
17780.0,0.0
17784.0,0.0
17788.0,0.007390297659755688
17792.0,-0.01140248674467975
17796.0,0.00951925102414783
17800.0,0.007832566257863268
17804.0,0.02438822047064799
17808.0,-0.006750206060438252
17812.0,0.007754304612917447
17816.0,-0.005349571297977798
17820.0,0.011641230061158733
17824.0,0.0007455569333271604
17828.0,-0.006703507342312413
17832.0,0.04239916017564228
17836.0,0.06896515596739182
17840.0,0.0864435536838087
17844.0,0.12675970427815136
17848.0,0.1464245548386082
17852.0,0.18020983010945385
17856.0,0.18468120278207542
17860.0,0.1908650062857306
17864.0,0.20593939310529902
17868.0,0.1829133162890716
17872.0,0.19287738387606007
17876.0,0.17489453942873387
17880.0,0.16606708079132734
17884.0,0.1703367277485076
17888.0,0.13629991089419335
17892.0,0.10748642350335746
17896.0,0.09869407641112998
17900.0,0.06345673176148457
17904.0,0.01967678629218387
17908.0,-0.0008478354654008716
17912.0,0.010035618544420501
17916.0,-0.025040922593376425
17920.0,-0.0008356362234260892
17924.0,-0.001059708939336738
17928.0,0.009086819611631986
17932.0,0.004633397765968142
17936.0,-0.003186271291232165
17940.0,0.004282650768488273
17944.0,0.001221015607145958
17948.0,0.000544942059847186
17952.0,-0.02223958881912794
17956.0,0.02083273785627215
17960.0,-0.015473961565560147
17964.0,0.006367114445392698
17968.0,0.008639038235289321
17972.0,0.0023693959542782682
17976.0,0.008265985095362504
17980.0,-0.014723869408871857
17984.0,0.0017999986880196316
17988.0,0.0004726782522743726
17992.0,-0.04245555897980061
17996.0,-0.08930054494232244
18000.0,-0.1159977027758243
18004.0,-0.1587037645320335
18008.0,-0.008142747328268852
18012.0,0.2163617246921105
18016.0,0.40483657875860224
18020.0,0.5975766305378413
18024.0,0.8243770372563946
18028.0,0.9997929315719992
18032.0,0.7973169385737285
18036.0,0.571492316514391
18040.0,0.4055964487041645
18044.0,0.19261546296702176
18048.0,0.006481363966993986
18052.0,-0.07272724222413587
18056.0,-0.15503437945004642
18060.0,-0.23863789573020786
18064.0,-0.27709641560544607
18068.0,-0.2132398106119227
18072.0,-0.16428235819369322
18076.0,-0.07288782007589605
18080.0,-0.005253749729484303
18084.0,-0.023088603583605177
18088.0,0.0061470453465559
18092.0,-0.009474933252886624
18096.0,0.0021751228166107164
18100.0,0.006374024244699558
18104.0,-0.0018489005541029605
18108.0,-0.020278202349161632
18112.0,0.007321257193883227
18116.0,-0.0014360943401286808
18120.0,3.0636578929357364e-05
18124.0,0.007907478721180805
18128.0,-0.011063474208658927
18132.0,0.0007493967683789307
18136.0,0.01061762186083935
18140.0,-0.0002671075338762807
18144.0,0.0085586966073567
18148.0,0.00149441637986023
18152.0,-0.012537786638317089
18156.0,0.011310565712968677
18160.0,0.0031430389365921033
18164.0,-0.009501745416228218
18168.0,-0.002477754775127622
18172.0,-0.005411475028301066
18176.0,0.012848857481331955
18180.0,-0.01563650312858795
18184.0,0.003694362732202822
18188.0,-0.004353021695625638
18192.0,0.0353470390009617
18196.0,0.06694181179472836
18200.0,0.09248657258769792
18204.0,0.10741999530791958
18208.0,0.1408286362997514
18212.0,0.18075261174378743
18216.0,0.1940338239068143
18220.0,0.2243266131330919
18224.0,0.23935542948059274
18228.0,0.24476600008717378
18232.0,0.25902082195698756
18236.0,0.30764455632852716
18240.0,0.30413659436162227
18244.0,0.2943631742472344
18248.0,0.30859427954411167
18252.0,0.3000642358457609
18256.0,0.2958261655159662
18260.0,0.29713929289210655
18264.0,0.26744199485825126
18268.0,0.2765090054738841
18272.0,0.2382658685234317
18276.0,0.23170888562405476
18280.0,0.19266842302879741
18284.0,0.18595053494817843
18288.0,0.16172776345075945
18292.0,0.12006171201251804
18296.0,0.09556047094323669
18300.0,0.07007882064533213
18304.0,0.04377588279516847
18308.0,0.021152604411837996
18312.0,-0.014459218009173658
18316.0,0.0027791284033080103
18320.0,0.013970669310636072
18324.0,-0.005059363250427384
18328.0,0.0067343781207605926
18332.0,0.009552369411213952
18336.0,0.012794921875715255
18340.0,-0.011767311165341894
18344.0,-0.010466172679908297
18348.0,0.012246755434611026
18352.0,-0.0017011449342860985
18356.0,0.00443472531268906
18360.0,-0.00447172939645776
18364.0,-0.0008581220184386096
18368.0,-0.0010511112164213955
18372.0,0.007078493492497788
18376.0,0.015391561272911834
18380.0,0.008089474517698272
18384.0,-0.007290639308805727
18388.0,0.0
18392.0,0.0
18396.0,0.0
18400.0,0.0
18404.0,0.0
18408.0,0.0
18412.0,0.0
18416.0,0.0
18420.0,0.0
18424.0,0.0
18428.0,0.0
18432.0,0.0
18436.0,0.0
18440.0,0.0
18444.0,0.0
18448.0,0.0
18452.0,0.0
18456.0,0.0
18460.0,0.0
18464.0,0.0
18468.0,0.0
18472.0,0.0
18476.0,0.0
18480.0,0.0
18484.0,0.0
18488.0,0.0
18492.0,0.0
18496.0,0.0
18500.0,0.0
18504.0,0.0
18508.0,0.0
18512.0,0.0
18516.0,-0.0009189436148957111
18520.0,0.004922046223658661
18524.0,-0.009586142689045039
18528.0,0.004260602205410715
18532.0,-0.00709005709209956
18536.0,-0.01436694049466095
18540.0,0.0012749782778714788
18544.0,0.004474349366029596
18548.0,0.00724775838880799
18552.0,-0.006241549595961307
18556.0,0.005257779046691489
18560.0,0.02982696734189671
18564.0,0.07104735085011867
18568.0,0.08339983390343851
18572.0,0.1111993951406698
18576.0,0.13341299355747738
18580.0,0.1576215855090101
18584.0,0.1716852185251049
18588.0,0.18728371882127326
18592.0,0.20827109932895693
18596.0,0.21793875539607105
18600.0,0.19271534547316016
18604.0,0.18778708077624204
18608.0,0.1851774380193036
18612.0,0.17678005618817486
18616.0,0.15474350308496565
18620.0,0.12138355515674876
18624.0,0.08684748593797832
18628.0,0.06903427938340743
18632.0,0.036167777145424455
18636.0,-0.01839262554300192
18640.0,-0.0019512971259028698
18644.0,-0.0187628072033128
18648.0,0.004480084345894943
18652.0,-0.004344327733103253
18656.0,0.013381670464702813
18660.0,0.02298362126933221
18664.0,0.004672343877714009
18668.0,-0.00042510697957768954
18672.0,-0.007347007415427765
18676.0,-0.0036210655784986306
18680.0,0.0017679471023570492
18684.0,-0.0077313886853678584
18688.0,0.010709636356874623
18692.0,-0.017130895571726725
18696.0,0.00014712405658620263
18700.0,0.0006452794203961827
18704.0,0.002097434904428669
18708.0,0.004144100384967735
18712.0,-0.01123223178674659
18716.0,0.004599095916922279
18720.0,-0.026912569236457212
18724.0,-0.0832132520347649
18728.0,-0.14030782046954923
18732.0,-0.1714161984387811
18736.0,-0.009860618857340037
18740.0,0.18679670296137918
18744.0,0.3851735703096759
18748.0,0.5839597741580775
18752.0,0.7908841230299918
18756.0,1.0144335392500599
18760.0,0.8038008731807542
18764.0,0.6074774569424758
18768.0,0.3947338134523219
18772.0,0.21549710485103102
18776.0,0.0033640797652808602
18780.0,-0.05445678492705785
18784.0,-0.14337691454449353
18788.0,-0.21519580699772128
18792.0,-0.2949255491309712
18796.0,-0.22064084741553716
18800.0,-0.16028414063569293
18804.0,-0.06078319218615159
18808.0,0.004223895274214149
18812.0,-0.00045951502286258446
18816.0,0.013481591700778471
18820.0,0.01772962868556716
18824.0,-0.009644717671363752
18828.0,-0.020115757539966462
18832.0,-0.016115542649546143
18836.0,0.0061068658438169976
18840.0,0.01602983574162646
18844.0,-0.003390817429772137
18848.0,-0.004988571044206793
18852.0,0.01439624126544093
18856.0,0.011817100913338485
18860.0,0.015128817346965974
18864.0,-0.007497428720946667
18868.0,0.019153822005648646
18872.0,-0.0002943195765419864
18876.0,0.013353581805452899
18880.0,-0.00921194298246506
18884.0,0.0021438431834651718
18888.0,-0.0047490102140687095
18892.0,-0.01580458508606628
18896.0,0.003796798801368004
18900.0,-0.004419646347475157
18904.0,-0.004221191763542414
18908.0,0.023979427462760244
18912.0,-0.0026578067065914667
18916.0,0.0047862146494691
18920.0,0.04007776235542742
18924.0,0.06464086222317939
18928.0,0.09095095725899506
18932.0,0.11462427464918207
18936.0,0.13214790303097798
18940.0,0.18058543603005817
18944.0,0.1942755500197339
18948.0,0.2051966479028199
18952.0,0.24278390083752213
18956.0,0.2595501922462286
18960.0,0.2617216479465492
18964.0,0.2957616953961774
18968.0,0.2934702940322705
18972.0,0.30663334593505187
18976.0,0.3176312503888622
18980.0,0.3066709083252573
18984.0,0.2790283065075547
18988.0,0.2875840266871858
18992.0,0.25727637608920234
18996.0,0.2784561778249676
19000.0,0.23809017753672962
19004.0,0.21870345285681972
19008.0,0.19163219564692852
19012.0,0.18333689259788538
19016.0,0.14544557012795964
19020.0,0.10934596213414476
19024.0,0.09503953798332773
19028.0,0.06729825349662409
19032.0,0.04332924090668684
19036.0,-0.0039370436111411545
19040.0,0.0010887889028376495
19044.0,0.0025450240742690387
19048.0,-0.014239589101918628
19052.0,0.004087669556890176
19056.0,-0.01316271525857316
19060.0,-0.01922476031087639
19064.0,-0.01078862802177283
19068.0,0.007751559439951852
19072.0,0.0027006478596051527
19076.0,-0.005930546757343082
19080.0,-0.0035017755750524483
19084.0,-0.012648008288227972
19088.0,-0.00487219252784081
19092.0,-0.000319169542868414
19096.0,0.009923158024217081
19100.0,-0.010558598924962463
19104.0,0.021976770392897655
19108.0,-0.008922218170352268
19112.0,0.015438588041807196
19116.0,0.0
19120.0,0.0
19124.0,0.0
19128.0,0.0
19132.0,0.0
19136.0,0.0
19140.0,0.0
19144.0,0.0
19148.0,0.0
19152.0,0.0
19156.0,0.0
19160.0,0.0
19164.0,0.0
19168.0,0.0
19172.0,0.0
19176.0,0.0
19180.0,0.0
19184.0,0.0
19188.0,0.0
19192.0,0.0
19196.0,0.0
19200.0,0.0
19204.0,0.0
19208.0,0.0
19212.0,0.0
19216.0,0.0
19220.0,0.0
19224.0,0.0
19228.0,0.0
19232.0,0.0
19236.0,0.0
19240.0,0.0
19244.0,0.0
19248.0,0.0
19252.0,0.0
19256.0,0.0
19260.0,0.0
19264.0,0.0
19268.0,0.0
19272.0,0.0
19276.0,0.006776771544026488
19280.0,-0.012402355145385633
19284.0,-0.017911144446326157
19288.0,-0.0048690248454076835
19292.0,-0.007720171855075974
19296.0,-0.0033396214877672997
19300.0,-0.019760496824893566
19304.0,-0.00617319682551408
19308.0,-0.012517160715129904
19312.0,-0.015251052818603117
19316.0,-0.013247792407135264
19320.0,0.018748205058196278
19324.0,0.06970393093744179
19328.0,0.08286812144580426
19332.0,0.12080505283499213
19336.0,0.14278103772884915
19340.0,0.1481617761427555
19344.0,0.17280927581718875
19348.0,0.19961856614107504
19352.0,0.218809650099259
19356.0,0.20561786530942874
19360.0,0.19178853675463767
19364.0,0.19286947972783713
19368.0,0.19478661050910986
19372.0,0.1677049783238084
19376.0,0.13039714596163535
19380.0,0.12121798440433917
19384.0,0.09361999890256312
19388.0,0.059885158942331596
19392.0,0.020231434765498827
19396.0,-0.005689137222510617
19400.0,-0.0034924120425319496
19404.0,-0.016448151284462392
19408.0,0.006660021224943712
19412.0,0.0026411519410085393
19416.0,0.01169740283832736
19420.0,-0.0024582433539277367
19424.0,0.010074467511406449
19428.0,0.00156335649552804
19432.0,-0.014768395896334696
19436.0,0.009272516831595603
19440.0,0.009680809739389647
19444.0,-0.00021981370419227835
19448.0,-0.012765995143652072
19452.0,0.010668942616315503
19456.0,-0.003031345622709993
19460.0,-0.0015769723975240936
19464.0,-0.018491208555023453
19468.0,0.0059144108473223635
19472.0,-0.0005293871738366892
19476.0,-0.0013117670491400264
19480.0,-0.025724241169239402
19484.0,-0.08465291222691279
19488.0,-0.11808657617409979
19492.0,-0.16695757661200433
19496.0,-0.0024515476483724695
19500.0,0.21252496794707162
19504.0,0.3939815939088412
19508.0,0.6094816797662127
19512.0,0.7957221971934146
19516.0,0.9850855376274817
19520.0,0.787168325980634
19524.0,0.6115538905436506
19528.0,0.38125925859100707
19532.0,0.1915661616383713
19536.0,-0.0005571624389358226
19540.0,-0.046367474719398054
19544.0,-0.14580058373879431
19548.0,-0.22900690561624795
19552.0,-0.2996166338954572
19556.0,-0.20875027771436358
19560.0,-0.15800716502846132
19564.0,-0.07142969993531575
19568.0,0.0018522691172466557
19572.0,-9.27769570560702e-05
19576.0,0.012014624647789582
19580.0,0.00743654164201168
19584.0,0.004514636636828267
19588.0,-0.013938591816193136
19592.0,0.0030944163844861955
19596.0,-0.008866599910953829
19600.0,0.012690845339657393
19604.0,-0.0019435038385248995
19608.0,-0.01270335796822962
19612.0,-0.017451430345686837
19616.0,-0.0011313772940258334
19620.0,0.0029886258564951135
19624.0,0.0038648149766100023
19628.0,0.0044198401371909075
19632.0,-0.010200020181898617
19636.0,-0.0018760481047575756
19640.0,-0.008696335321663706
19644.0,0.014198487997291292
19648.0,0.002996586652623092
19652.0,-0.004378118835783757
19656.0,0.00023055989213017746
19660.0,0.013369266677112704
19664.0,0.001482352347823154
19668.0,0.0007586578534146762
19672.0,0.011294640615813823
19676.0,-0.00013065650955488244
19680.0,0.01888215663827021
19684.0,0.057346040907381386
19688.0,0.08173015094829109
19692.0,0.11579288431455965
19696.0,0.14707691660825026
19700.0,0.17361937405010738
19704.0,0.2044071358864634
19708.0,0.2243862322816819
19712.0,0.2522289218234819
19716.0,0.263182459276992
19720.0,0.2680588297532566
19724.0,0.29191616253291036
19728.0,0.3029700400800932
19732.0,0.3119087487932992
19736.0,0.30537961753007786
19740.0,0.27962391673787196
19744.0,0.28940199187949367
19748.0,0.26999915100237826
19752.0,0.28244164435903957
19756.0,0.26102552523915384
19760.0,0.2325324311424694
19764.0,0.21045569228206665
19768.0,0.19099604939131118
19772.0,0.1705185920466493
19776.0,0.13319432784064572
19780.0,0.09447300271211835
19784.0,0.09639849899264258
19788.0,0.06609818595729532
19792.0,0.02397670196307021
19796.0,-0.01353508832474222
19800.0,-0.022460865939404703
19804.0,0.00018409433332804606
19808.0,0.002133024855007705
19812.0,0.004397594925025628
19816.0,-0.0018151328714069513
19820.0,0.006511827575057675
19824.0,0.01144456766470844
19828.0,1.0146315885933771e-05
19832.0,0.007349206038555654
19836.0,-0.001580008832438698
19840.0,0.010214387361997541
19844.0,-0.007050917069531508
19848.0,0.0009783766922904246
19852.0,-0.002371197042065818
19856.0,-0.00631942766820761
19860.0,0.002203028322101872
19864.0,0.0024041465323387345
19868.0,-0.006139877961080231
19872.0,-0.014487883661864666
19876.0,0.0
19880.0,0.0
19884.0,0.0
19888.0,0.0
19892.0,0.0
19896.0,0.0
19900.0,0.0
19904.0,0.0
19908.0,0.0
19912.0,0.0
19916.0,0.0
19920.0,0.0
19924.0,0.0
19928.0,0.0
19932.0,0.0
19936.0,0.0
19940.0,0.0
19944.0,0.0
19948.0,0.0
19952.0,0.0
19956.0,0.0
19960.0,0.0
19964.0,0.0
19968.0,0.0
19972.0,0.0
19976.0,0.0
19980.0,0.0
19984.0,0.0
19988.0,0.0
19992.0,0.0
19996.0,0.0
20000.0,0.0
20004.0,0.0
20008.0,-0.0025715065141231927
20012.0,-0.012799744240898747
20016.0,-0.014198420738549454
20020.0,0.006917967758017867
20024.0,0.0030636276921023305
20028.0,0.014214012162652306
20032.0,0.010242850761095315
20036.0,-0.0034409341250877102
20040.0,0.006777717810885552
20044.0,0.006570210107069239
20048.0,0.0016496049057700447
20052.0,0.02856228384382991
20056.0,0.06185484182047759
20060.0,0.08965980587521484
20064.0,0.09486465024036618
20068.0,0.15273117259988206
20072.0,0.16911031984520192
20076.0,0.17181123387966893
20080.0,0.2043891511438402
20084.0,0.2122870173429747
20088.0,0.2034344434462113
20092.0,0.19535475966138954
20096.0,0.20138119475493013
20100.0,0.1593197587709363
20104.0,0.16262331767755606
20108.0,0.14117126770905553
20112.0,0.1225475251909875
20116.0,0.08683917399403891
20120.0,0.06129399864733782
20124.0,0.04717328834955929
20128.0,-0.012429444846469503
20132.0,-0.0050717397898168886
20136.0,0.0013083124322095766
20140.0,0.009463062276271101
20144.0,0.00241627914105237
20148.0,0.0001277702800858682
20152.0,-0.002276261641298443
20156.0,-0.0008399253861528347
20160.0,-0.0007417726333944564
20164.0,-0.006822764592400222
20168.0,-0.004708348110836105
