time,value
0.0,0.0
4.0,0.0
8.0,0.0
12.0,0.0
16.0,0.0
20.0,0.0
24.0,0.0
28.0,0.0
32.0,0.0
36.0,0.0
40.0,0.0
44.0,0.0
48.0,0.0
52.0,0.0
56.0,0.0
60.0,0.0
64.0,0.0
68.0,0.0
72.0,0.0
76.0,0.0
80.0,0.0
84.0,0.0
88.0,0.0
92.0,0.0
96.0,0.0
100.0,0.0
104.0,0.0
108.0,0.0
112.0,0.0
116.0,0.0
120.0,0.0
124.0,0.0
128.0,0.0
132.0,0.0
136.0,0.0
140.0,0.0
144.0,0.0
148.0,0.0
152.0,0.0
156.0,0.0
160.0,0.0
164.0,0.0
168.0,0.0
172.0,0.0
176.0,0.0
180.0,0.0
184.0,0.0
188.0,0.0
192.0,0.0
196.0,0.0
200.0,0.0
204.0,0.0
208.0,0.0
212.0,0.0
216.0,0.0
220.0,0.0
224.0,0.0
228.0,0.0
232.0,0.0
236.0,0.0
240.0,0.0
244.0,0.0
248.0,0.0
252.0,0.0
256.0,0.0
260.0,0.0
264.0,0.0
268.0,0.0
272.0,0.0
276.0,0.0
280.0,0.0
284.0,0.0
288.0,0.0
292.0,0.0
296.0,0.0
300.0,0.0
304.0,0.0
308.0,0.0
312.0,0.0
316.0,0.0
320.0,0.0
324.0,0.0
328.0,0.0
332.0,0.0
336.0,0.0
340.0,0.0
344.0,0.0
348.0,0.0
352.0,0.0
356.0,0.0
360.0,0.0
364.0,0.0
368.0,0.0
372.0,0.0
376.0,0.0
380.0,0.0
384.0,0.0
388.0,0.0
392.0,0.0
396.0,0.0
400.0,0.0
404.0,0.0
408.0,0.0
412.0,0.0
416.0,0.0
420.0,0.0
424.0,0.0
428.0,0.0
432.0,0.0
436.0,0.0
440.0,0.0
444.0,0.0
448.0,0.0
452.0,0.0
456.0,0.0
460.0,0.0
464.0,0.0
468.0,0.0
472.0,0.0
476.0,0.0
480.0,0.0
484.0,0.0
488.0,0.0
492.0,0.0
496.0,0.0
500.0,0.010060838053321964
504.0,0.006210598082453726
508.0,-0.010404963090650013
512.0,0.018599068861195778
516.0,0.0010358269135730472
520.0,0.005100418115621306
524.0,-0.0045633152937337865
528.0,-0.0030704327943380455
532.0,-0.022228124462931324
536.0,0.0038607496190568155
540.0,0.00897423687148667
544.0,0.020563788283982025
548.0,0.07772844237108796
552.0,0.09927026433437
556.0,0.10703401236515517
560.0,0.1526674860312681
564.0,0.18123521415981733
568.0,0.1977318556987987
572.0,0.20778421863469607
576.0,0.20713757527102095
580.0,0.206195157376064
584.0,0.2141053346680146
588.0,0.20426735282688394
592.0,0.1918622670298562
596.0,0.1798210309312639
600.0,0.16677242749906218
604.0,0.11918491112281816
608.0,0.09030596416896622
612.0,0.0819949923793433
616.0,0.02971997764291059
620.0,-0.010184752675188374
624.0,0.007146688156397789
628.0,-0.020903818549179616
632.0,-0.01888569368163603
636.0,0.009792638614530495
640.0,0.012602683305839999
644.0,0.005424112999625827
648.0,-0.006308473579585383
652.0,0.01095715606959564
656.0,0.008670237275009766
660.0,0.0035720044163655602
664.0,0.01744994775363879
668.0,0.008510256917476517
672.0,-0.011488536033628894
676.0,-0.015979544016622584
680.0,-0.0026737178293831996
684.0,0.016852335161448254
688.0,0.017075114735349974
692.0,0.01448456429556531
696.0,-0.014506018055807571
700.0,0.007047640173743607
704.0,-0.038680777139985245
708.0,-0.07229599215821139
712.0,-0.13431706068862825
716.0,-0.17949632802543009
720.0,-0.010332556519444131
724.0,0.20922372952664833
728.0,0.43766924164295484
732.0,0.6594989801027964
736.0,0.8872096694739336
740.0,1.0925411283456006
744.0,0.8805828245669405
748.0,0.6666325642302704
752.0,0.43412713852174967
756.0,0.21415602748105383
760.0,0.003283599302920342
764.0,-0.07630411478648355
768.0,-0.1675551527203018
772.0,-0.22736589580248562
776.0,-0.3134678297005993
780.0,-0.24487716737041865
784.0,-0.16073792567516854
788.0,-0.06214187914261146
792.0,0.0017926505374219756
796.0,0.00576667430113637
800.0,-0.0012758085994916423
804.0,0.011316356356818845
808.0,0.009973362698045173
812.0,0.004651650760211507
816.0,0.01009755210315542
820.0,-0.003655573140423517
824.0,-0.01095433272500057
828.0,-0.0016342559208077717
832.0,-0.011934093160664317
836.0,-0.018889488319861047
840.0,-0.0021712010431551225
844.0,0.015559124556115798
848.0,-0.009881217379416591
852.0,0.0077095024983316615
856.0,-0.00939154423456934
860.0,0.003417229482179327
864.0,-0.010842435537789767
868.0,0.0020448175079253693
872.0,0.006015582547752639
876.0,0.00246340279879998
880.0,-0.023613803280765833
884.0,-0.016825276364626354
888.0,-0.0005647776727293553
892.0,-0.0012449581807043295
896.0,0.014890505812665433
900.0,0.0056047706174794975
904.0,0.03936997441120113
908.0,0.06319916436293078
912.0,0.11468970365972009
916.0,0.12291626003636585
920.0,0.16260075324126305
924.0,0.1735436959194223
928.0,0.21106064970747995
932.0,0.23768876089879953
936.0,0.26982767286705983
940.0,0.2855043947724924
944.0,0.3048347149115272
948.0,0.3175987663535286
952.0,0.337672098599847
956.0,0.31711545174151934
960.0,0.32468634855337297
964.0,0.3254292280675532
968.0,0.30996104939340774
972.0,0.32247937902495366
976.0,0.3108544040896942
980.0,0.28000361362203335
984.0,0.27282466675999767
988.0,0.257500071458449
992.0,0.21960759120073603
996.0,0.19297749842689593
1000.0,0.17236672909841957
1004.0,0.1382925556210578
1008.0,0.10517591871380287
1012.0,0.06521901790095362
1016.0,0.030366177653732573
1020.0,0.006099584855564008
1024.0,-0.010848539012356067
1028.0,0.01014085997826588
1032.0,0.011169465357175109
1036.0,0.003863631882975745
1040.0,0.004651212112238755
1044.0,-0.002720067466964991
1048.0,-0.005332370652059635
1052.0,0.0076135992150812735
1056.0,-0.006712152845413818
1060.0,-0.0012905552092491949
1064.0,0.0013692547644549272
1068.0,-0.0008982085525944443
1072.0,0.0031375541184540234
1076.0,0.010060185851806625
1080.0,0.006938072221835202
1084.0,0.00953353412208237
1088.0,-0.006907896592251342
1092.0,-0.0032449454117225106
1096.0,-0.0002845268169003977
1100.0,0.0
1104.0,0.0
1108.0,0.0
1112.0,0.0
1116.0,0.0
1120.0,0.0
1124.0,0.0
1128.0,0.0
1132.0,0.0
1136.0,0.0
1140.0,0.0
1144.0,0.0
1148.0,0.0
1152.0,0.0
1156.0,0.0
1160.0,0.0
1164.0,0.0
1168.0,0.0
1172.0,0.0
1176.0,0.0
1180.0,0.0
1184.0,0.0
1188.0,0.0
1192.0,0.0
1196.0,0.0
1200.0,0.0
1204.0,0.0
1208.0,0.0
1212.0,0.0
1216.0,0.0
1220.0,0.0
1224.0,0.0
1228.0,0.0
1232.0,0.0
1236.0,0.0
1240.0,0.0
1244.0,0.0
1248.0,0.0
1252.0,0.0
1256.0,0.0
1260.0,0.0
1264.0,0.0
1268.0,0.0
1272.0,0.0
1276.0,0.0
1280.0,0.0
1284.0,0.0
1288.0,0.0
1292.0,0.0
1296.0,0.0
1300.0,0.0
1304.0,0.0
1308.0,0.0
1312.0,0.0
1316.0,0.0
1320.0,0.0
1324.0,0.0
1328.0,0.0
1332.0,0.0
1336.0,0.0
1340.0,0.0
1344.0,0.0
1348.0,0.0
1352.0,0.0
1356.0,0.0
1360.0,0.0
1364.0,0.0
1368.0,0.0
1372.0,0.0
1376.0,0.0
1380.0,0.0
1384.0,0.0
1388.0,0.0
1392.0,0.0
1396.0,0.0
1400.0,0.0
1404.0,0.0
1408.0,0.0
1412.0,0.0
1416.0,0.0
1420.0,0.0
1424.0,0.0
1428.0,0.0
1432.0,0.0
1436.0,0.0
1440.0,0.0
1444.0,0.0
1448.0,0.0
1452.0,0.0
1456.0,0.0
1460.0,0.0
1464.0,0.0
1468.0,0.0
1472.0,0.0
1476.0,0.0
1480.0,0.0
1484.0,0.0
1488.0,0.0
1492.0,0.0
1496.0,0.0
1500.0,0.0
1504.0,0.0
1508.0,0.0
1512.0,0.0
1516.0,0.0
1520.0,0.0
1524.0,0.0
1528.0,0.0
1532.0,0.0
1536.0,0.0
1540.0,0.0
1544.0,0.0
1548.0,0.0
1552.0,0.0
1556.0,0.0
1560.0,0.0
1564.0,0.0
1568.0,0.0
1572.0,0.0
1576.0,0.0
1580.0,0.0
1584.0,0.0
1588.0,0.0
1592.0,0.0
1596.0,0.0
1600.0,0.0
1604.0,0.0
1608.0,0.0
1612.0,0.0
1616.0,0.0
1620.0,0.0
1624.0,0.0
1628.0,0.0
1632.0,0.0
1636.0,0.0
1640.0,0.0
1644.0,0.0
1648.0,0.0
1652.0,0.0
1656.0,0.0
1660.0,0.0
1664.0,0.0
1668.0,0.0
1672.0,0.0
1676.0,0.0
1680.0,0.0
1684.0,0.0
1688.0,0.0
1692.0,0.0
1696.0,0.0
1700.0,0.0
1704.0,0.0
1708.0,0.0
1712.0,0.0
1716.0,0.0
1720.0,0.0
1724.0,0.0
1728.0,0.0
1732.0,0.0
1736.0,0.0
1740.0,0.0
1744.0,0.0
1748.0,0.0
1752.0,0.0
1756.0,0.0
1760.0,0.0
1764.0,0.0
1768.0,0.0
1772.0,0.0
1776.0,0.0
1780.0,0.0
1784.0,0.0
1788.0,0.0
1792.0,0.0
1796.0,0.0
1800.0,0.0
1804.0,0.0
1808.0,0.0
1812.0,0.0
1816.0,0.0
1820.0,0.0
1824.0,0.0
1828.0,0.0
1832.0,0.014079769878939231
1836.0,-0.012241758739949584
1840.0,0.022695779022735212
1844.0,0.0204442150910662
1848.0,0.006031855053778637
1852.0,-0.016418453295936566
1856.0,0.013360389510237297
1860.0,0.000371420418467677
1864.0,-0.001989618188211118
1868.0,0.010375909383262416
1872.0,-0.0007204316865860688
1876.0,0.052689540412581795
1880.0,0.0682555697617584
1884.0,0.09246869025111813
1888.0,0.11698840144866883
1892.0,0.1541501554881329
1896.0,0.16961823500099124
1900.0,0.21059769652719854
1904.0,0.1991037479400771
1908.0,0.23780960139332052
1912.0,0.22753572729247376
1916.0,0.21032598352194934
1920.0,0.21919293725993655
1924.0,0.20009851988230398
1928.0,0.17977854712406002
1932.0,0.17047935297255587
1936.0,0.135570694131595
1940.0,0.09585838006962268
1944.0,0.07967247326049874
1948.0,0.0443301446637376
1952.0,-0.012065958710899476
1956.0,-0.01425269194396783
1960.0,0.0038371082682955473
1964.0,-0.0023520423001123355
1968.0,0.014652892580825116
1972.0,-0.01828939439015214
1976.0,0.016403591189802884
1980.0,0.013289931052504101
1984.0,0.016095524996436534
1988.0,-0.0019396382463140224
1992.0,-0.010327547128523098
1996.0,-0.007402188187625606
2000.0,0.0007766001179256483
2004.0,0.007344960993312577
2008.0,0.010953955377224728
2012.0,-0.002205912677949497
2016.0,0.002141749429709692
2020.0,0.016536810768552745
2024.0,0.0038224289163604516
2028.0,5.4208042076889865e-05
2032.0,-0.005257878644913744
2036.0,-0.03573265643942776
2040.0,-0.08819326237794359
2044.0,-0.1281047353337933
2048.0,-0.15151185646908788
2052.0,-0.00018507120209142425
2056.0,0.21464668225538175
2060.0,0.4522174232624601
2064.0,0.657785226391858
2068.0,0.8696322987846102
2072.0,1.0980258477777394
2076.0,0.8766811054374097
2080.0,0.6629972154934809
2084.0,0.42136709655163596
2088.0,0.2242609061131986
2092.0,0.004919000528433242
2096.0,-0.08804955971488035
2100.0,-0.18574441473853165
2104.0,-0.24155688185711527
2108.0,-0.33326087155420286
2112.0,-0.2366324394568112
2116.0,-0.1491331877252961
2120.0,-0.07044589710333196
2124.0,0.021216504460969354
2128.0,0.01868900931725472
2132.0,0.005613988412871414
2136.0,0.016731246081843735
2140.0,0.0160059163121292
2144.0,-0.00010652054936197196
2148.0,-0.007530983398529585
2152.0,-0.023927322514354775
2156.0,0.004710319987572771
2160.0,0.0011714003667984679
2164.0,-0.0003683210777117145
2168.0,-0.0005710542325528903
2172.0,-0.017813041987053805
2176.0,-0.002151252567020618
2180.0,0.007014038330307518
2184.0,0.004465232262113777
2188.0,-0.006398921754248283
2192.0,-0.02141547128366398
2196.0,0.00271901901006338
2200.0,-0.0009743207845402797
2204.0,-0.01094242521613306
2208.0,0.00727796345422865
2212.0,-0.013952089365719266
2216.0,0.004375048221928986
2220.0,0.0024073170882642145
2224.0,-0.0076130955691802605
2228.0,-0.011460887576936165
2232.0,-0.010458287253331833
2236.0,0.03333182828821438
2240.0,0.06922396666050293
2244.0,0.09092883630732954
2248.0,0.1250598373948278
2252.0,0.17055260312894777
2256.0,0.1904058360498143
2260.0,0.2053637502520064
2264.0,0.2381308849535119
2268.0,0.2724299886290139
2272.0,0.28546960127299575
2276.0,0.29739824631641
2280.0,0.31743505239191094
2284.0,0.3223587812900617
2288.0,0.34117918807550646
2292.0,0.33332954833948514
2296.0,0.32546244785372846
2300.0,0.32370674040204384
2304.0,0.3017015933023038
2308.0,0.29487451686749555
2312.0,0.308004776513286
2316.0,0.27077333173701273
2320.0,0.25390201208705493
2324.0,0.22752373274108503
2328.0,0.1964915649915148
2332.0,0.1731717519151923
2336.0,0.1330546290198991
2340.0,0.10584848999912529
2344.0,0.07191951567542595
2348.0,0.017506318498985943
2352.0,0.00415384911032938
2356.0,-0.0007927464122245093
2360.0,-0.0050491408151687525
2364.0,0.01796953511124303
2368.0,0.0013569677813792637
2372.0,-0.008705653812130131
2376.0,0.005378066866725699
2380.0,0.0008261382824234389
2384.0,-0.0005970984441164309
2388.0,-0.0012397138182979077
2392.0,-0.007913618195938735
2396.0,0.008665388221879122
2400.0,0.014665877860873573
2404.0,-0.0029918649447851727
2408.0,-0.005627413743661193
2412.0,0.019086939843520348
2416.0,-0.014263141808813336
2420.0,0.012071734820940247
2424.0,-0.013083260473089792
2428.0,0.012704541052931529
2432.0,0.0
2436.0,0.0
2440.0,0.0
2444.0,0.0
2448.0,0.0
2452.0,0.0
2456.0,0.0
2460.0,0.0
2464.0,0.0
2468.0,0.0
2472.0,0.0
2476.0,0.0
2480.0,0.0
2484.0,0.0
2488.0,0.0
2492.0,0.0
2496.0,0.0
2500.0,0.0
2504.0,0.0
2508.0,0.0
2512.0,0.0
2516.0,0.0
2520.0,0.0
2524.0,0.0
2528.0,0.0
2532.0,0.0
2536.0,0.0
2540.0,0.0
2544.0,0.0
2548.0,0.0
2552.0,0.0
2556.0,0.0
2560.0,0.0
2564.0,0.0
2568.0,0.0
2572.0,0.0
2576.0,0.0
2580.0,0.0
2584.0,0.0
2588.0,0.0
2592.0,0.0
2596.0,0.0
2600.0,0.0
2604.0,0.0
2608.0,0.0
2612.0,0.0
2616.0,0.0
2620.0,0.0
2624.0,0.0
2628.0,0.0
2632.0,0.0
2636.0,0.0
2640.0,0.0
2644.0,0.0
2648.0,0.0
2652.0,0.0
2656.0,0.0
2660.0,0.0
2664.0,0.0
2668.0,0.0
2672.0,0.0
2676.0,0.0
2680.0,0.0
2684.0,0.0
2688.0,0.0
2692.0,0.0
2696.0,0.0
2700.0,0.0
2704.0,0.0
2708.0,0.0
2712.0,0.0
2716.0,0.0
2720.0,0.0
2724.0,0.0
2728.0,0.0
2732.0,0.0
2736.0,0.0
2740.0,0.0
2744.0,0.0
2748.0,0.0
2752.0,0.0
2756.0,0.0
2760.0,0.0
2764.0,0.0
2768.0,0.0
2772.0,0.0
2776.0,0.0
2780.0,0.0
2784.0,0.0
2788.0,0.0
2792.0,0.0
2796.0,0.0
2800.0,0.0
2804.0,0.0
2808.0,0.0
2812.0,0.0
2816.0,0.0
2820.0,0.0
2824.0,0.0
2828.0,0.0
2832.0,0.0
2836.0,0.0
2840.0,0.0
2844.0,0.0
2848.0,0.0
2852.0,0.0
2856.0,0.0
2860.0,0.0
2864.0,0.0
2868.0,0.0
2872.0,0.0
2876.0,0.0
2880.0,0.0
2884.0,0.0
2888.0,0.0
2892.0,0.0
2896.0,0.0
2900.0,0.0
2904.0,0.0
2908.0,0.0
2912.0,0.0
2916.0,0.0
2920.0,0.0
2924.0,0.0
2928.0,0.0
2932.0,0.0
2936.0,0.0
2940.0,0.0
2944.0,0.0
2948.0,0.0
2952.0,0.0
2956.0,0.0
2960.0,0.0
2964.0,0.0
2968.0,0.0
2972.0,0.0
2976.0,0.0
2980.0,0.0
2984.0,0.0
2988.0,0.0
2992.0,0.0
2996.0,0.0
3000.0,0.0
3004.0,0.0
3008.0,0.0
3012.0,0.0
3016.0,0.0
3020.0,0.0
3024.0,0.0
3028.0,0.0
3032.0,0.0
3036.0,0.0
3040.0,0.0
3044.0,0.0
3048.0,0.0
3052.0,0.0
3056.0,0.0
3060.0,0.0
3064.0,0.0
3068.0,0.0
3072.0,0.0
3076.0,0.0
3080.0,0.0
3084.0,0.0
3088.0,0.0
3092.0,0.0
3096.0,0.0
3100.0,0.0
3104.0,0.0
3108.0,0.0
3112.0,0.0
3116.0,0.0
3120.0,0.0
3124.0,0.0
3128.0,0.0
3132.0,0.0
3136.0,0.0
3140.0,0.0
3144.0,0.0
3148.0,0.0
3152.0,0.0
3156.0,0.0
3160.0,0.0
3164.0,-0.011792032988841645
3168.0,0.004319068606747715
3172.0,-0.00543273538097122
3176.0,0.0093908950468518
3180.0,-0.0056992604908067315
3184.0,0.008202301649351311
3188.0,-0.0060016817538397285
3192.0,0.024581696181384456
3196.0,-0.011555828337108146
3200.0,0.009847803206024859
3204.0,-0.007229824437292878
3208.0,0.022764637638487274
3212.0,0.05411944999129169
3216.0,0.09054896773985664
3220.0,0.12031640070773246
3224.0,0.15219954237058816
3228.0,0.1475642276117399
3232.0,0.17610780878139792
3236.0,0.2018636985317424
3240.0,0.2336948612750177
3244.0,0.22586587737378805
3248.0,0.22757419093888817
3252.0,0.20360287354383527
3256.0,0.2151287140345299
3260.0,0.17999719915119447
3264.0,0.16776746388695088
3268.0,0.13549206759259577
3272.0,0.10439245729299598
3276.0,0.06938351354002076
3280.0,0.038105073917533434
3284.0,0.01799891302062622
3288.0,0.009495324892221197
3292.0,-0.0031829501799651282
3296.0,0.0020285691352426197
3300.0,0.015113190111919335
3304.0,0.01581029955471816
3308.0,-0.01903258179570698
3312.0,-0.011369571016566101
3316.0,-0.009782249014915092
3320.0,-0.008307339721360869
3324.0,0.00556303299161168
3328.0,0.014618404047231342
3332.0,-0.007193925089472676
3336.0,0.002350336942340947
3340.0,0.009117999105706572
3344.0,0.007852970816225761
3348.0,-0.003767214451215689
3352.0,0.010184856758269016
3356.0,0.005921089492342338
3360.0,-0.004025943561253199
3364.0,-0.010946448994978169
3368.0,-0.032291603430335325
3372.0,-0.08257990567542348
3376.0,-0.13423912414966696
3380.0,-0.17388614082010842
3384.0,0.014018207420920309
3388.0,0.22579435882361043
3392.0,0.43592155515188513
3396.0,0.6632414510794256
3400.0,0.8739902362047165
3404.0,1.1099336045304875
3408.0,0.8743943381830236
3412.0,0.6496045274877856
3416.0,0.44422087557193873
3420.0,0.2273707375451533
3424.0,0.0025497911912588235
3428.0,-0.0788548150752081
3432.0,-0.17340527889072746
3436.0,-0.25463292494246437
3440.0,-0.32310375097670224
3444.0,-0.26022122780525225
3448.0,-0.16858455719802343
3452.0,-0.07767863341842099
3456.0,0.004422961747766578
3460.0,0.010645825339180362
3464.0,-0.003159756762036276
3468.0,0.008697053374681662
3472.0,0.008427062331411708
3476.0,-0.0020301294817586715
3480.0,-0.0019366530066584253
3484.0,0.008286617376660019
3488.0,0.015977042606954015
3492.0,0.014060221730011677
3496.0,-0.005246765524338068
3500.0,0.003364326918032915
3504.0,0.00661637587570952
3508.0,-0.0017630965117945644
3512.0,-0.00401063000691058
3516.0,0.006959613548617205
3520.0,0.017659477844046048
3524.0,0.007426659347569947
3528.0,-0.00465619984933005
3532.0,0.004092601454067754
3536.0,-0.024161527657682726
3540.0,0.006682945129894561
3544.0,-0.0009381195458766573
3548.0,-0.008797815299471141
3552.0,-0.008817743350142414
3556.0,-0.002389113205117574
3560.0,-0.006083149781967686
3564.0,-0.007246109873741215
3568.0,0.024965779803712423
3572.0,0.09277125323708516
3576.0,0.11553161519505772
3580.0,0.12082483177399216
3584.0,0.15544801404204073
3588.0,0.1970132035749858
3592.0,0.2171168666221293
3596.0,0.25411313637912863
3600.0,0.2504019609728813
3604.0,0.31245515782637584
3608.0,0.30539004756820926
3612.0,0.3094609851536084
3616.0,0.31595670202708126
3620.0,0.33667853715169516
3624.0,0.3267500466255174
3628.0,0.3348415186218267
3632.0,0.33075314221941365
3636.0,0.3232322836432805
3640.0,0.30454101704576814
3644.0,0.29998866849951555
3648.0,0.2831969803923375
3652.0,0.2619580381706174
3656.0,0.2166105509573117
3660.0,0.1923615005365069
3664.0,0.16974985761628097
3668.0,0.15141825616365523
3672.0,0.09749753576595085
3676.0,0.07450094711318805
3680.0,0.03761971632737884
3684.0,0.0054774342341666615
3688.0,-0.004433576277190679
3692.0,0.008413319696952705
3696.0,0.0010337274960628827
3700.0,-0.0058795866166026145
3704.0,0.013347988960991602
3708.0,-0.007240553643779569
3712.0,-0.007286376793912573
3716.0,-0.0039002363796481914
3720.0,-0.014827467110325676
3724.0,-0.005195798702619317
3728.0,0.0017468413620719944
3732.0,-0.0018611526244088367
3736.0,-0.005518428131250283
3740.0,0.004130269249734573
3744.0,0.013798831285078965
3748.0,-0.018419047861240292
3752.0,-0.002566365087227011
3756.0,0.01171888622504887
3760.0,-0.004770950936261535
3764.0,0.0
3768.0,0.0
3772.0,0.0
3776.0,0.0
3780.0,0.0
3784.0,0.0
3788.0,0.0
3792.0,0.0
3796.0,0.0
3800.0,0.0
3804.0,0.0
3808.0,0.0
3812.0,0.0
3816.0,0.0
3820.0,0.0
3824.0,0.0
3828.0,0.0
3832.0,0.0
3836.0,0.0
3840.0,0.0
3844.0,0.0
3848.0,0.0
3852.0,0.0
3856.0,0.0
3860.0,0.0
3864.0,0.0
3868.0,0.0
3872.0,0.0
3876.0,0.0
3880.0,0.0
3884.0,0.0
3888.0,0.0
3892.0,0.0
3896.0,0.0
3900.0,0.0
3904.0,0.0
3908.0,0.0
3912.0,0.0
3916.0,0.0
3920.0,0.0
3924.0,0.0
3928.0,0.0
3932.0,0.0
3936.0,0.0
3940.0,0.0
3944.0,0.0
3948.0,0.0
3952.0,0.0
3956.0,0.0
3960.0,0.0
3964.0,0.0
3968.0,0.0
3972.0,0.0
3976.0,0.0
3980.0,0.0
3984.0,0.0
3988.0,0.0
3992.0,0.0
3996.0,0.0
4000.0,0.0
4004.0,0.0
4008.0,0.0
4012.0,0.0
4016.0,0.0
4020.0,0.0
4024.0,0.0
4028.0,0.0
4032.0,0.0
4036.0,0.0
4040.0,0.0
4044.0,0.0
4048.0,0.0
4052.0,0.0
4056.0,0.0
4060.0,0.0
4064.0,0.0
4068.0,0.0
4072.0,0.0
4076.0,0.0
4080.0,0.0
4084.0,0.0
4088.0,0.0
4092.0,0.0
4096.0,0.0
4100.0,0.0
4104.0,0.0
4108.0,0.0
4112.0,0.0
4116.0,0.0
4120.0,0.0
4124.0,0.0
4128.0,0.0
4132.0,0.0
4136.0,0.0
4140.0,0.0
4144.0,0.0
4148.0,0.0
4152.0,0.0
4156.0,0.0
4160.0,0.0
4164.0,0.0
4168.0,0.0
4172.0,0.0
4176.0,0.0
4180.0,0.0
4184.0,0.0
4188.0,0.0
4192.0,0.0
4196.0,0.0
4200.0,0.0
4204.0,0.0
4208.0,0.0
4212.0,0.0
4216.0,0.0
4220.0,0.0
4224.0,0.0
4228.0,0.0
4232.0,0.0
4236.0,0.0
4240.0,0.0
4244.0,0.0
4248.0,0.0
4252.0,0.0
4256.0,0.0
4260.0,0.0
4264.0,0.0
4268.0,0.0
4272.0,0.0
4276.0,0.0
4280.0,0.0
4284.0,0.0
4288.0,0.0
4292.0,0.0
4296.0,0.0
4300.0,0.0
4304.0,0.0
4308.0,0.0
4312.0,0.0
4316.0,0.0
4320.0,0.0
4324.0,0.0
4328.0,0.0
4332.0,0.0
4336.0,0.0
4340.0,0.0
4344.0,0.0
4348.0,0.0
4352.0,0.0
4356.0,0.0
4360.0,0.0
4364.0,0.0
4368.0,0.0
4372.0,0.0
4376.0,0.0
4380.0,0.0
4384.0,0.0
4388.0,0.0
4392.0,0.0
4396.0,0.0
4400.0,0.0
4404.0,0.0
4408.0,0.0
4412.0,0.0
4416.0,0.0
4420.0,0.0
4424.0,0.0
4428.0,0.0
4432.0,0.0
4436.0,0.0
4440.0,0.0
4444.0,0.0
4448.0,0.0
4452.0,0.0
4456.0,0.0
4460.0,0.0
4464.0,0.0
4468.0,0.0
4472.0,0.0
4476.0,0.0
4480.0,0.0
4484.0,0.0
4488.0,0.0
4492.0,0.0
4496.0,0.0030157016598095633
4500.0,-0.005405078472083107
4504.0,0.002393191660600207
4508.0,0.00638361299601189
4512.0,0.003457455624361353
4516.0,0.0007458087247431326
4520.0,-0.024301678973458123
4524.0,-0.013213411888622963
4528.0,-0.014914185903989512
4532.0,0.006470752493881618
4536.0,-0.011589958857824639
4540.0,0.02958259635397903
4544.0,0.08777120007953479
4548.0,0.07683140239538107
4552.0,0.12532821509584358
4556.0,0.16254687725845018
4560.0,0.16384480940792906
4564.0,0.2008796100584166
4568.0,0.1880032012437589
4572.0,0.2115362394390033
4576.0,0.2090772114777746
4580.0,0.20050275637148657
4584.0,0.21639641429423878
4588.0,0.20884050725457864
4592.0,0.17940539015429663
4596.0,0.15818461797980168
4600.0,0.13316737258818953
4604.0,0.09806483963903291
4608.0,0.06026576450110638
4612.0,0.055060808652225554
4616.0,-0.00757981381260166
4620.0,0.0060531570166756565
4624.0,-0.01285559561700104
4628.0,0.0006469312942362993
4632.0,0.0004860648940963193
4636.0,-0.0017433896596192977
4640.0,-0.0065127142948830635
4644.0,0.002109116715826366
4648.0,0.011878139991993882
4652.0,0.0034745001761918503
4656.0,0.007327330684489076
4660.0,-0.003100521181325606
4664.0,-0.007632555617162954
4668.0,-0.0036376329473058466
4672.0,0.011173211276869585
4676.0,-0.008487305939548271
4680.0,0.0107148016103848
4684.0,-0.005790516599014734
4688.0,0.005030177308210724
4692.0,0.0034216348236112406
4696.0,0.017683657266232448
4700.0,-0.031020442810396044
4704.0,-0.09635703159939588
4708.0,-0.11881341577392907
4712.0,-0.17582602551846727
4716.0,-0.015998648048167165
4720.0,0.21816786313421505
4724.0,0.44996452508508533
4728.0,0.6375691315405679
4732.0,0.8739950361077315
4736.0,1.1059626891627943
4740.0,0.8807344709175462
4744.0,0.6600370533308517
4748.0,0.42857314564314863
4752.0,0.22804202418174152
4756.0,-0.01583507890383942
4760.0,-0.07332304467486485
4764.0,-0.19022001043831058
4768.0,-0.2587634560396152
4772.0,-0.32139439568351796
4776.0,-0.25521243959122825
4780.0,-0.15378644323360613
4784.0,-0.07796146058692287
4788.0,0.0026944726515881145
4792.0,-0.011654007997835515
4796.0,-0.0011769791673519423
4800.0,-0.0010991696494035237
4804.0,-0.011796365300032823
4808.0,-0.015026788665211304
4812.0,0.008206661484376002
4816.0,-0.009553793435456398
4820.0,-0.0066080908710621925
4824.0,0.007792707379200562
4828.0,0.0028255717882319925
4832.0,-0.0026504823205068064
4836.0,-0.0005335865377596231
4840.0,0.0018401210057000829
4844.0,0.005831572702974227
4848.0,-0.013833277342083115
4852.0,0.014838835964920302
4856.0,0.0015407463147771373
4860.0,-0.017008281880897428
4864.0,-0.005108770533816881
4868.0,0.01160963113421559
4872.0,0.01643077030827103
4876.0,-0.008034335740684361
4880.0,0.0013341411909341017
4884.0,-0.004129317561297917
4888.0,-0.009407775198195847
4892.0,0.009686805668698915
4896.0,-0.003094925756746654
4900.0,0.037766632403553754
4904.0,0.05459973771316714
4908.0,0.09504853719200951
4912.0,0.120639425392231
4916.0,0.17159098386586047
4920.0,0.20840054124697088
4924.0,0.23722396367927862
4928.0,0.24784992599072145
4932.0,0.2530016348522358
4936.0,0.26566854003102386
4940.0,0.2929802850355189
4944.0,0.3147380703972939
4948.0,0.31867075681315193
4952.0,0.32795763798252564
4956.0,0.3376443186186777
4960.0,0.3210985971157518
4964.0,0.3314284053076774
4968.0,0.3321254789750508
4972.0,0.31702302141334493
4976.0,0.2848069692341239
4980.0,0.2678070459516575
4984.0,0.273138779751167
4988.0,0.22571930792520187
4992.0,0.18842859397443765
4996.0,0.17226668662857728
5000.0,0.13410834767029875
5004.0,0.112818560598963
5008.0,0.0700547498122924
5012.0,0.03845377890452079
5016.0,0.004766963215287276
5020.0,0.0014692769895996295
5024.0,-0.006450032535770094
5028.0,-0.005129963326932292
5032.0,0.005548314043691418
5036.0,-0.008911956023051382
5040.0,-0.010144831616862684
5044.0,0.01093456507018912
5048.0,-0.002960612824665988
5052.0,0.020019417384424344
5056.0,0.012941556572165999
5060.0,-0.0012623298290053192
5064.0,-0.0008155020147629713
5068.0,0.00626846950086379
5072.0,-0.0013322564544464785
5076.0,0.004466006713391557
5080.0,0.0021596418257358264
5084.0,-0.008060065857498752
5088.0,0.010667893750752942
5092.0,0.0014813535502720035
5096.0,0.0
5100.0,0.0
5104.0,0.0
5108.0,0.0
5112.0,0.0
5116.0,0.0
5120.0,0.0
5124.0,0.0
5128.0,0.0
5132.0,0.0
5136.0,0.0
5140.0,0.0
5144.0,0.0
5148.0,0.0
5152.0,0.0
5156.0,0.0
5160.0,0.0
5164.0,0.0
5168.0,0.0
5172.0,0.0
5176.0,0.0
5180.0,0.0
5184.0,0.0
5188.0,0.0
5192.0,0.0
5196.0,0.0
5200.0,0.0
5204.0,0.0
5208.0,0.0
5212.0,0.0
5216.0,0.0
5220.0,0.0
5224.0,0.0
5228.0,0.0
5232.0,0.0
5236.0,0.0
5240.0,0.0
5244.0,0.0
5248.0,0.0
5252.0,0.0
5256.0,0.0
5260.0,0.0
5264.0,0.0
5268.0,0.0
5272.0,0.0
5276.0,0.0
5280.0,0.0
5284.0,0.0
5288.0,0.0
5292.0,0.0
5296.0,0.0
5300.0,0.0
5304.0,0.0
5308.0,0.0
5312.0,0.0
5316.0,0.0
5320.0,0.0
5324.0,0.0
5328.0,0.0
5332.0,0.0
5336.0,0.0
5340.0,0.0
5344.0,0.0
5348.0,0.0
5352.0,0.0
5356.0,0.0
5360.0,0.0
5364.0,0.0
5368.0,0.0
5372.0,0.0
5376.0,0.0
5380.0,0.0
5384.0,0.0
5388.0,0.0
5392.0,0.0
5396.0,0.0
5400.0,0.0
5404.0,0.0
5408.0,0.0
5412.0,0.0
5416.0,0.0
5420.0,0.0
5424.0,0.0
5428.0,0.0
5432.0,0.0
5436.0,0.0
5440.0,0.0
5444.0,0.0
5448.0,0.0
5452.0,0.0
5456.0,0.0
5460.0,0.0
5464.0,0.0
5468.0,0.0
5472.0,0.0
5476.0,0.0
5480.0,0.0
5484.0,0.0
5488.0,0.0
5492.0,0.0
5496.0,0.0
5500.0,0.0
5504.0,0.0
5508.0,0.0
5512.0,0.0
5516.0,0.0
5520.0,0.0
5524.0,0.0
5528.0,0.0
5532.0,0.0
5536.0,0.0
5540.0,0.0
5544.0,0.0
5548.0,0.0
5552.0,0.0
5556.0,0.0
5560.0,0.0
5564.0,0.0
5568.0,0.0
5572.0,0.0
5576.0,0.0
5580.0,0.0
5584.0,0.0
5588.0,0.0
5592.0,0.0
5596.0,0.0
5600.0,0.0
5604.0,0.0
5608.0,0.0
5612.0,0.0
5616.0,0.0
5620.0,0.0
5624.0,0.0
5628.0,0.0
5632.0,0.0
5636.0,0.0
5640.0,0.0
5644.0,0.0
5648.0,0.0
5652.0,0.0
5656.0,0.0
5660.0,0.0
5664.0,0.0
5668.0,0.0
5672.0,0.0
5676.0,0.0
5680.0,0.0
5684.0,0.0
5688.0,0.0
5692.0,0.0
5696.0,0.0
5700.0,0.0
5704.0,0.0
5708.0,0.0
5712.0,0.0
5716.0,0.0
5720.0,0.0
5724.0,0.0
5728.0,0.0
5732.0,0.0
5736.0,0.0
5740.0,0.0
5744.0,0.0
5748.0,0.0
5752.0,0.0
5756.0,0.0
5760.0,0.0
5764.0,0.0
5768.0,0.0
5772.0,0.0
5776.0,0.0
5780.0,0.0
5784.0,0.0
5788.0,0.0
5792.0,0.0
5796.0,0.0
5800.0,0.0
5804.0,0.0
5808.0,0.0
5812.0,0.0
5816.0,0.0
5820.0,0.0
5824.0,0.0
5828.0,0.0005619746588931111
5832.0,0.008468222318416648
5836.0,-0.011412769525234711
5840.0,-0.004910998327614184
5844.0,-0.005592339661442053
5848.0,-0.017365000997185444
5852.0,0.0016106918777872223
5856.0,-0.0034157507139893064
5860.0,-0.002232289748270725
5864.0,0.012988646169199662
5868.0,0.021616470718038343
5872.0,0.04252386780680084
5876.0,0.058887260718342625
5880.0,0.09956061058889723
5884.0,0.12235579985605179
5888.0,0.16687414010677332
5892.0,0.18668856435933526
5896.0,0.21326020441799712
5900.0,0.22413032498886856
5904.0,0.2332348705564117
5908.0,0.20607625647206282
5912.0,0.2087979419057102
5916.0,0.20180406106013135
5920.0,0.1986604337868117
5924.0,0.17532259039490913
5928.0,0.1540766675637639
5932.0,0.14688267456982207
5936.0,0.11384454100524827
5940.0,0.055564376001482334
5944.0,0.037588026880812364
5948.0,-0.02415776860498158
5952.0,-0.021021762091211916
5956.0,0.008460906654791926
5960.0,0.0038379519492820415
5964.0,0.0012715802787520386
5968.0,0.002328383761190172
5972.0,-0.020440272183809588
5976.0,-0.0037941072273972878
5980.0,0.0031938282851143303
5984.0,-0.012129609422130585
5988.0,0.010611366834747251
5992.0,0.004844882333370968
5996.0,0.011018759524466284
6000.0,0.004537475798538291
6004.0,0.005633870617296844
6008.0,-0.009278356127111897
6012.0,-0.0008500416308344247
6016.0,0.006633309180857855
6020.0,-0.0054763877207735625
6024.0,-0.004247837403054197
6028.0,0.012553520013107663
6032.0,-0.0526647101514484
6036.0,-0.10311513619892003
6040.0,-0.13129044810377133
6044.0,-0.15992252185640127
6048.0,0.0012966930007804872
6052.0,0.22005022188815826
6056.0,0.45059740803613674
6060.0,0.6692532808104714
6064.0,0.8851994578961765
6068.0,1.1073133542278204
6072.0,0.8842236345615135
6076.0,0.6523019425088636
6080.0,0.4438577062491823
6084.0,0.22717664292876055
6088.0,0.007135073299190371
6092.0,-0.08264172459728934
6096.0,-0.16348727263862572
6100.0,-0.24974728697760984
6104.0,-0.33359831304574633
6108.0,-0.26735535735243343
6112.0,-0.1499263375236383
6116.0,-0.09537399580149514
6120.0,-0.0029012944735442693
6124.0,7.230166945966587e-05
6128.0,-0.00343138388882345
6132.0,-0.013423678542258389
6136.0,0.001938766991922177
6140.0,-0.005321615310150803
6144.0,-0.01815520814048093
6148.0,0.006308047470159124
6152.0,0.005445529886953035
6156.0,0.0055817479820498206
6160.0,-0.004329228421005866
6164.0,0.013334280899648531
6168.0,0.017645485735936536
6172.0,0.0036251446063413767
6176.0,-0.007116251056411251
6180.0,0.013972040281063712
6184.0,0.003611579763547814
6188.0,-0.004908179382982131
6192.0,0.005109831496860665
6196.0,-0.013227751472167728
6200.0,0.0019128065034778692
6204.0,0.00026959902378666164
6208.0,0.0015687056317924013
6212.0,-0.0032465367486289717
6216.0,0.016689539640484446
6220.0,-0.013818938282539547
6224.0,0.000378191910271861
6228.0,-0.015056076966529474
6232.0,0.017773612819870496
6236.0,0.07208782593540936
6240.0,0.09245748461998934
6244.0,0.12834383554835457
6248.0,0.16050051293667372
6252.0,0.20547358385359257
6256.0,0.2219117253285031
6260.0,0.24192805018366142
6264.0,0.2671924459069251
6268.0,0.2720561420069301
6272.0,0.3136321193112685
6276.0,0.30841346649226825
6280.0,0.3126672261778114
6284.0,0.3196271761689096
6288.0,0.3296412508501525
6292.0,0.33000571294355524
6296.0,0.3006837582232352
6300.0,0.3239055406610447
6304.0,0.2995171456286072
6308.0,0.28711223653307455
6312.0,0.24822174551922993
6316.0,0.25471239985398425
6320.0,0.2276184647517776
6324.0,0.20166455527677724
6328.0,0.15131341384570043
6332.0,0.15130318751035265
6336.0,0.1062768952735945
6340.0,0.07119765267337153
6344.0,0.02867346902320898
6348.0,0.0161312968738578
6352.0,-0.008166318304876597
6356.0,-0.022013248115570358
6360.0,0.009621819393775117
6364.0,0.005369893582121681
6368.0,-0.005658071353352318
6372.0,0.023024272147049166
6376.0,0.008263754617626226
6380.0,-0.008575983080521037
6384.0,-0.01702889138439741
6388.0,0.004335470896748525
6392.0,0.007541256519046551
6396.0,-0.014357764167579452
6400.0,0.014774302870533232
6404.0,0.020437503604429304
6408.0,-0.01144384771249221
6412.0,-0.008286616643170666
6416.0,-0.01664492156786165
6420.0,0.0037734239036392447
6424.0,0.0027692080288216603
6428.0,0.0
6432.0,0.0
6436.0,0.0
6440.0,0.0
6444.0,0.0
6448.0,0.0
6452.0,0.0
6456.0,0.0
6460.0,0.0
6464.0,0.0
6468.0,0.0
6472.0,0.0
6476.0,0.0
6480.0,0.0
6484.0,0.0
6488.0,0.0
6492.0,0.0
6496.0,0.0
6500.0,0.0
6504.0,0.0
6508.0,0.0
6512.0,0.0
6516.0,0.0
6520.0,0.0
6524.0,0.0
6528.0,0.0
6532.0,0.0
6536.0,0.0
6540.0,0.0
6544.0,0.0
6548.0,0.0
6552.0,0.0
6556.0,0.0
6560.0,0.0
6564.0,0.0
6568.0,0.0
6572.0,0.0
6576.0,0.0
6580.0,0.0
6584.0,0.0
6588.0,0.0
6592.0,0.0
6596.0,0.0
6600.0,0.0
6604.0,0.0
6608.0,0.0
6612.0,0.0
6616.0,0.0
6620.0,0.0
6624.0,0.0
6628.0,0.0
6632.0,0.0
6636.0,0.0
6640.0,0.0
6644.0,0.0
6648.0,0.0
6652.0,0.0
6656.0,0.0
6660.0,0.0
6664.0,0.0
6668.0,0.0
6672.0,0.0
6676.0,0.0
6680.0,0.0
6684.0,0.0
6688.0,0.0
6692.0,0.0
6696.0,0.0
6700.0,0.0
6704.0,0.0
6708.0,0.0
6712.0,0.0
6716.0,0.0
6720.0,0.0
6724.0,0.0
6728.0,0.0
6732.0,0.0
6736.0,0.0
6740.0,0.0
6744.0,0.0
6748.0,0.0
6752.0,0.0
6756.0,0.0
6760.0,0.0
6764.0,0.0
6768.0,0.0
6772.0,0.0
6776.0,0.0
6780.0,0.0
6784.0,0.0
6788.0,0.0
6792.0,0.0
6796.0,0.0
6800.0,0.0
6804.0,0.0
6808.0,0.0
6812.0,0.0
6816.0,0.0
6820.0,0.0
6824.0,0.0
6828.0,0.0
6832.0,0.0
6836.0,0.0
6840.0,0.0
6844.0,0.0
6848.0,0.0
6852.0,0.0
6856.0,0.0
6860.0,0.0
6864.0,0.0
6868.0,0.0
6872.0,0.0
6876.0,0.0
6880.0,0.0
6884.0,0.0
6888.0,0.0
6892.0,0.0
6896.0,0.0
6900.0,0.0
6904.0,0.0
6908.0,0.0
6912.0,0.0
6916.0,0.0
6920.0,0.0
6924.0,0.0
6928.0,0.0
6932.0,0.0
6936.0,0.0
6940.0,0.0
6944.0,0.0
6948.0,0.0
6952.0,0.0
6956.0,0.0
6960.0,0.0
6964.0,0.0
6968.0,0.0
6972.0,0.0
6976.0,0.0
6980.0,0.0
6984.0,0.0
6988.0,0.0
6992.0,0.0
6996.0,0.0
7000.0,0.0
7004.0,0.0
7008.0,0.0
7012.0,0.0
7016.0,0.0
7020.0,0.0
7024.0,0.0
7028.0,0.0
7032.0,0.0
7036.0,0.0
7040.0,0.0
7044.0,0.0
7048.0,0.0
7052.0,0.0
7056.0,0.0
7060.0,0.0
7064.0,0.0
7068.0,0.0
7072.0,0.0
7076.0,0.0
7080.0,0.0
7084.0,0.0
7088.0,0.0
7092.0,0.0
7096.0,0.0
7100.0,0.0
7104.0,0.0
7108.0,0.0
7112.0,0.0
7116.0,0.0
7120.0,0.0
7124.0,0.0
7128.0,0.0
7132.0,0.0
7136.0,0.0
7140.0,0.0
7144.0,0.0
7148.0,0.0
7152.0,0.0
7156.0,0.0
7160.0,-0.002389337540056886
7164.0,0.0033250152888888115
7168.0,0.007050909742816608
7172.0,0.005463155806044467
7176.0,-0.014477049126319506
7180.0,-0.014427849192817907
7184.0,-0.004695734982451688
7188.0,0.0010983927457527316
7192.0,-0.013136619417185975
7196.0,-0.007245143784318758
7200.0,0.003992339509493074
7204.0,0.005386707289258372
7208.0,0.0708242384728155
7212.0,0.12334872367167453
7216.0,0.13656976751724373
7220.0,0.16132724104651933
7224.0,0.17623522569538
7228.0,0.19615433570583113
7232.0,0.2146652923584727
7236.0,0.21616639322254635
7240.0,0.20429822229919428
7244.0,0.21094791333801058
7248.0,0.19817637322259274
7252.0,0.1880797532865215
7256.0,0.198074739707946
7260.0,0.1420415404671592
7264.0,0.1285694114653254
7268.0,0.09304062569363411
7272.0,0.06872699585819471
7276.0,0.03808619268859118
7280.0,-0.00822569792414538
7284.0,-0.003921867791748425
7288.0,-0.017759203263372297
7292.0,-0.011535665659053857
7296.0,0.00932758931888356
7300.0,0.013469560823046772
7304.0,0.00010756790691428169
7308.0,-0.02451321278209389
7312.0,0.004464742477965833
7316.0,-0.014867469367869595
7320.0,-0.006752290519505421
7324.0,0.016797730586146645
7328.0,0.007861120936372593
7332.0,-0.008315338113033614
7336.0,0.008583780659781328
7340.0,0.015337718111496907
7344.0,-0.007648132325830238
7348.0,-0.005367388762045529
7352.0,0.0024801030245652127
7356.0,1.6533661476021573e-05
7360.0,0.004402805620330497
7364.0,-0.055834317964940636
7368.0,-0.10549864985395571
7372.0,-0.11759458180534178
7376.0,-0.17083942321696216
7380.0,-0.009656829210948093
7384.0,0.20916220287435602
7388.0,0.44333250096254256
7392.0,0.6512745318485589
7396.0,0.8898278623977056
7400.0,1.0968134656693256
7404.0,0.8796806922144027
7408.0,0.6576845274378609
7412.0,0.4461301997372755
7416.0,0.21494985110333856
7420.0,0.008880874913326049
7424.0,-0.08566739104990573
7428.0,-0.14300712814191957
7432.0,-0.26356539333926193
7436.0,-0.3301493461444441
7440.0,-0.2422302552681099
7444.0,-0.15554406402108992
7448.0,-0.08244859901645364
7452.0,-0.002817718797039405
7456.0,-0.0063109792286933945
7460.0,0.010566006828886839
7464.0,0.00816973386265477
7468.0,-0.011219163541814273
7472.0,-0.0005338297671009488
7476.0,-0.0017220075181967798
7480.0,-0.01142777040978995
7484.0,0.001507847711976846
7488.0,0.008548196658679749
7492.0,0.011069096763596183
7496.0,-0.010118958634288942
7500.0,0.001129405833470678
7504.0,0.005306577161951305
7508.0,0.014476497302121734
7512.0,-0.012807723213343905
7516.0,0.007049954127791129
7520.0,0.005120975486976375
7524.0,0.006504939769806597
7528.0,0.011859570311226067
7532.0,-0.005759555548614216
7536.0,-0.006704704693794215
7540.0,0.02333045943187539
7544.0,-0.005981208294762264
7548.0,-0.005005757512393005
7552.0,0.015611569156280128
7556.0,-0.020120744668611183
7560.0,-0.0002732573194915364
7564.0,0.05177077673270369
7568.0,0.06702660829629412
7572.0,0.11380452350752446
7576.0,0.1380834806075863
7580.0,0.17666976666767256
7584.0,0.184741945168736
7588.0,0.21787252107844773
7592.0,0.24602075009046231
7596.0,0.2491199875199293
7600.0,0.2896902534431823
7604.0,0.3083162517929369
7608.0,0.32099451039440796
7612.0,0.322632796104217
7616.0,0.3268559091150133
7620.0,0.33196084761655675
7624.0,0.32617856797926115
7628.0,0.324393675854767
7632.0,0.3116064906891158
7636.0,0.29952217199128
7640.0,0.31403721080316327
7644.0,0.26433913587123736
7648.0,0.2537970442632809
7652.0,0.22686809376611478
7656.0,0.18732166059231134
7660.0,0.17000624571463346
7664.0,0.14146410501408027
7668.0,0.09591691011063422
7672.0,0.06227435705257021
7676.0,0.04110955222586984
7680.0,0.0008187445173654527
7684.0,0.01967407289812998
7688.0,-0.01647931168200309
7692.0,0.011227296341514549
7696.0,0.009603258610716021
7700.0,0.018543691298084208
7704.0,0.0015785280648803795
7708.0,-0.0052169054053331386
7712.0,0.002882391691945536
7716.0,-0.0013129085320437587
7720.0,-0.013535305835047369
7724.0,0.004429898120567237
7728.0,-0.007878708544345407
7732.0,0.003952017058793649
7736.0,-0.001452900607179495
7740.0,-0.021097997132946026
7744.0,0.013751623257758716
7748.0,-0.008644301967861454
7752.0,0.008929680834248837
7756.0,-0.0006263092614294098
7760.0,0.0
7764.0,0.0
7768.0,0.0
7772.0,0.0
7776.0,0.0
7780.0,0.0
7784.0,0.0
7788.0,0.0
7792.0,0.0
7796.0,0.0
7800.0,0.0
7804.0,0.0
7808.0,0.0
7812.0,0.0
7816.0,0.0
7820.0,0.0
7824.0,0.0
7828.0,0.0
7832.0,0.0
7836.0,0.0
7840.0,0.0
7844.0,0.0
7848.0,0.0
7852.0,0.0
7856.0,0.0
7860.0,0.0
7864.0,0.0
7868.0,0.0
7872.0,0.0
7876.0,0.0
7880.0,0.0
7884.0,0.0
7888.0,0.0
7892.0,0.0
7896.0,0.0
7900.0,0.0
7904.0,0.0
7908.0,0.0
7912.0,0.0
7916.0,0.0
7920.0,0.0
7924.0,0.0
7928.0,0.0
7932.0,0.0
7936.0,0.0
7940.0,0.0
7944.0,0.0
7948.0,0.0
7952.0,0.0
7956.0,0.0
7960.0,0.0
7964.0,0.0
7968.0,0.0
7972.0,0.0
7976.0,0.0
7980.0,0.0
7984.0,0.0
7988.0,0.0
7992.0,0.0
7996.0,0.0
8000.0,0.0
8004.0,0.0
8008.0,0.0
8012.0,0.0
8016.0,0.0
8020.0,0.0
8024.0,0.0
8028.0,0.0
8032.0,0.0
8036.0,0.0
8040.0,0.0
8044.0,0.0
8048.0,0.0
8052.0,0.0
8056.0,0.0
8060.0,0.0
8064.0,0.0
8068.0,0.0
8072.0,0.0
8076.0,0.0
8080.0,0.0
8084.0,0.0
8088.0,0.0
8092.0,0.0
8096.0,0.0
8100.0,0.0
8104.0,0.0
8108.0,0.0
8112.0,0.0
8116.0,0.0
8120.0,0.0
8124.0,0.0
8128.0,0.0
8132.0,0.0
8136.0,0.0
8140.0,0.0
8144.0,0.0
8148.0,0.0
8152.0,0.0
8156.0,0.0
8160.0,0.0
8164.0,0.0
8168.0,0.0
8172.0,0.0
8176.0,0.0
8180.0,0.0
8184.0,0.0
8188.0,0.0
8192.0,0.0
8196.0,0.0
8200.0,0.0
8204.0,0.0
8208.0,0.0
8212.0,0.0
8216.0,0.0
8220.0,0.0
8224.0,0.0
8228.0,0.0
8232.0,0.0
8236.0,0.0
8240.0,0.0
8244.0,0.0
8248.0,0.0
8252.0,0.0
8256.0,0.0
8260.0,0.0
8264.0,0.0
8268.0,0.0
8272.0,0.0
8276.0,0.0
8280.0,0.0
8284.0,0.0
8288.0,0.0
8292.0,0.0
8296.0,0.0
8300.0,0.0
8304.0,0.0
8308.0,0.0
8312.0,0.0
8316.0,0.0
8320.0,0.0
8324.0,0.0
8328.0,0.0
8332.0,0.0
8336.0,0.0
8340.0,0.0
8344.0,0.0
8348.0,0.0
8352.0,0.0
8356.0,0.0
8360.0,0.0
8364.0,0.0
8368.0,0.0
8372.0,0.0
8376.0,0.0
8380.0,0.0
8384.0,0.0
8388.0,0.0
8392.0,0.0
8396.0,0.0
8400.0,0.0
8404.0,0.0
8408.0,0.0
8412.0,0.0
8416.0,0.0
8420.0,0.0
8424.0,0.0
8428.0,0.0
8432.0,0.0
8436.0,0.0
8440.0,0.0
8444.0,0.0
8448.0,0.0
8452.0,0.0
8456.0,0.0
8460.0,0.0
8464.0,0.0
8468.0,0.0
8472.0,0.0
8476.0,0.0
8480.0,0.0
8484.0,0.0
8488.0,0.0
8492.0,-0.000899500021598006
8496.0,-0.0005097472323501153
8500.0,0.002377425983951672
8504.0,-0.008211253357799785
8508.0,-0.003825983023972916
8512.0,-0.0074979970336346916
8516.0,-0.0009866873123615888
8520.0,0.01347358346356006
8524.0,0.005431725179725375
8528.0,-0.0161032123966861
8532.0,-0.006759924473672683
8536.0,0.044467416109884396
8540.0,0.05680895842987992
8544.0,0.10866048557822472
8548.0,0.13209353538003862
8552.0,0.15484187405648958
8556.0,0.17802690068658739
8560.0,0.20234806217013507
8564.0,0.20434322628375312
8568.0,0.22185884778528608
8572.0,0.22669083288011535
8576.0,0.21259947724955763
8580.0,0.23219151781884734
8584.0,0.18514514339286814
8588.0,0.1740425337713368
8592.0,0.1581735535398474
8596.0,0.12223924373403879
8600.0,0.08992086909473783
8604.0,0.06734218742197513
8608.0,0.03307595922351806
8612.0,0.012930101858713605
8616.0,0.0017246638648249807
8620.0,-0.004985589468120374
8624.0,0.004496329409522193
8628.0,0.01095591460871577
8632.0,-0.01607903836785461
8636.0,-0.0020490838970040814
8640.0,0.002510927273931398
8644.0,0.012742233167171487
8648.0,-2.393380982019184e-05
8652.0,0.004765779599870251
8656.0,0.005613846730735184
8660.0,0.018594778524491297
8664.0,-0.0075623836534528316
8668.0,0.010265671541175496
8672.0,0.001596173425341848
8676.0,0.008415662696505084
8680.0,0.00938004294868832
8684.0,-0.0012766844548268755
8688.0,-0.012285018299063212
8692.0,0.009499917479120547
8696.0,-0.047112925446737244
8700.0,-0.10739963056450282
8704.0,-0.1450983031633067
8708.0,-0.18257308824954727
8712.0,0.008143680074363691
8716.0,0.22435789141131868
8720.0,0.43519571886699127
8724.0,0.6705679905435094
8728.0,0.8800388110125555
8732.0,1.1212346110534046
8736.0,0.8739175617366307
8740.0,0.6559615011149933
8744.0,0.4596574905896598
8748.0,0.22245934017336996
8752.0,-0.001096459171145632
8756.0,-0.07862866873526003
8760.0,-0.1468460768579159
8764.0,-0.2495708143793781
8768.0,-0.3301150380666696
8772.0,-0.2445594389677857
8776.0,-0.16734966302380885
8780.0,-0.08366198457539065
8784.0,-0.011183120401060802
8788.0,-0.00832950594122377
8792.0,0.0053182187714496875
8796.0,-0.002153052302183884
8800.0,-0.012084819894846662
8804.0,0.0024120205399484856
8808.0,-0.0020107673023450675
8812.0,0.0011568915030341958
8816.0,0.0011761638342528751
8820.0,-0.011562576153878488
8824.0,-0.013914699613979046
8828.0,-0.022446370518679603
8832.0,-0.018853860218712718
8836.0,-0.011420700585988396
8840.0,-0.010667195761606352
8844.0,-0.0020172027692800486
8848.0,0.010564227673269406
8852.0,-0.004760824268899697
8856.0,0.002626417273986438
8860.0,0.0022782926037026863
8864.0,-0.014050290707655452
8868.0,0.0002645054802180765
8872.0,0.001942494525924513
8876.0,-0.012462920273869055
8880.0,0.01545583517858327
8884.0,0.018580660879264882
8888.0,-0.0034578607100118563
8892.0,-0.008148769262253117
8896.0,0.027889113923508506
8900.0,0.062806527659602
8904.0,0.11038601221806013
8908.0,0.1287485281469344
8912.0,0.16925510419038783
8916.0,0.20846254877901504
8920.0,0.20999795268018767
8924.0,0.2517152729772284
8928.0,0.2582234851020982
8932.0,0.286872607953246
8936.0,0.30042643633274074
8940.0,0.3138102911376898
8944.0,0.32860240014584824
8948.0,0.32334705188466545
8952.0,0.330443821450871
8956.0,0.335365662770347
8960.0,0.3183483085234698
8964.0,0.3099732683055475
8968.0,0.298798683422864
8972.0,0.2991968767275808
8976.0,0.2758152797005885
8980.0,0.24988743944604533
8984.0,0.21517759578475354
8988.0,0.18581597597027855
8992.0,0.1528555858470423
8996.0,0.14058529523474347
9000.0,0.10887805507715644
9004.0,0.06024725223259951
9008.0,0.029376435614170995
9012.0,-0.016978212557596684
9016.0,0.0026127039299282755
9020.0,-0.008025172912598669
9024.0,-0.007726567268829514
9028.0,0.013425554622969762
9032.0,-0.008810136312388136
9036.0,0.011098764695023555
9040.0,0.005840706758330723
9044.0,-0.005101220468094433
9048.0,0.002699889294506696
9052.0,-0.01891874705809804
9056.0,0.016220228430554845
9060.0,0.009863063829114897
9064.0,0.00648573908353017
9068.0,-0.005694405619564273
9072.0,0.012722570210519497
9076.0,0.014096132997907424
9080.0,0.01566146923451774
9084.0,-0.01211958621421348
9088.0,-0.0029244041269074553
9092.0,0.0
9096.0,0.0
9100.0,0.0
9104.0,0.0
9108.0,0.0
9112.0,0.0
9116.0,0.0
9120.0,0.0
9124.0,0.0
9128.0,0.0
9132.0,0.0
9136.0,0.0
9140.0,0.0
9144.0,0.0
9148.0,0.0
9152.0,0.0
9156.0,0.0
9160.0,0.0
9164.0,0.0
9168.0,0.0
9172.0,0.0
9176.0,0.0
9180.0,0.0
9184.0,0.0
9188.0,0.0
9192.0,0.0
9196.0,0.0
9200.0,0.0
9204.0,0.0
9208.0,0.0
9212.0,0.0
9216.0,0.0
9220.0,0.0
9224.0,0.0
9228.0,0.0
9232.0,0.0
9236.0,0.0
9240.0,0.0
9244.0,0.0
9248.0,0.0
9252.0,0.0
9256.0,0.0
9260.0,0.0
9264.0,0.0
9268.0,0.0
9272.0,0.0
9276.0,0.0
9280.0,0.0
9284.0,0.0
9288.0,0.0
9292.0,0.0
9296.0,0.0
9300.0,0.0
9304.0,0.0
9308.0,0.0
9312.0,0.0
9316.0,0.0
9320.0,0.0
9324.0,0.0
9328.0,0.0
9332.0,0.0
9336.0,0.0
9340.0,0.0
9344.0,0.0
9348.0,0.0
9352.0,0.0
9356.0,0.0
9360.0,0.0
9364.0,0.0
9368.0,0.0
9372.0,0.0
9376.0,0.0
9380.0,0.0
9384.0,0.0
9388.0,0.0
9392.0,0.0
9396.0,0.0
9400.0,0.0
9404.0,0.0
9408.0,0.0
9412.0,0.0
9416.0,0.0
9420.0,0.0
9424.0,0.0
9428.0,0.0
9432.0,0.0
9436.0,0.0
9440.0,0.0
9444.0,0.0
9448.0,0.0
9452.0,0.0
9456.0,0.0
9460.0,0.0
9464.0,0.0
9468.0,0.0
9472.0,0.0
9476.0,0.0
9480.0,0.0
9484.0,0.0
9488.0,0.0
9492.0,0.0
9496.0,0.0
9500.0,0.0
9504.0,0.0
9508.0,0.0
9512.0,0.0
9516.0,0.0
9520.0,0.0
9524.0,0.0
9528.0,0.0
9532.0,0.0
9536.0,0.0
9540.0,0.0
9544.0,0.0
9548.0,0.0
9552.0,0.0
9556.0,0.0
9560.0,0.0
9564.0,0.0
9568.0,0.0
9572.0,0.0
9576.0,0.0
9580.0,0.0
9584.0,0.0
9588.0,0.0
9592.0,0.0
9596.0,0.0
9600.0,0.0
9604.0,0.0
9608.0,0.0
9612.0,0.0
9616.0,0.0
9620.0,0.0
9624.0,0.0
9628.0,0.0
9632.0,0.0
9636.0,0.0
9640.0,0.0
9644.0,0.0
9648.0,0.0
9652.0,0.0
9656.0,0.0
9660.0,0.0
9664.0,0.0
9668.0,0.0
9672.0,0.0
9676.0,0.0
9680.0,0.0
9684.0,0.0
9688.0,0.0
9692.0,0.0
9696.0,0.0
9700.0,0.0
9704.0,0.0
9708.0,0.0
9712.0,0.0
9716.0,0.0
9720.0,0.0
9724.0,0.0
9728.0,0.0
9732.0,0.0
9736.0,0.0
9740.0,0.0
9744.0,0.0
9748.0,0.0
9752.0,0.0
9756.0,0.0
9760.0,0.0
9764.0,0.0
9768.0,0.0
9772.0,0.0
9776.0,0.0
9780.0,0.0
9784.0,0.0
9788.0,0.0
9792.0,0.0
9796.0,0.0
9800.0,0.0
9804.0,0.0
9808.0,0.0
9812.0,0.0
9816.0,0.0
9820.0,0.0
9824.0,0.005567636698778574
9828.0,0.021615355825044844
9832.0,-0.007856432185054017
9836.0,-0.0016606171673114547
9840.0,0.003719021391314055
9844.0,0.002571237925606952
9848.0,0.029455907989261287
9852.0,0.012875373360294517
9856.0,-0.00446838362759478
9860.0,0.0006372958874213597
9864.0,0.006610769810373975
9868.0,0.028735582300340946
9872.0,0.07885281683434744
9876.0,0.1154509296183574
9880.0,0.13780805541598806
9884.0,0.1706719698690133
9888.0,0.16555832743668525
9892.0,0.19895788306809972
9896.0,0.228266397991918
9900.0,0.2214574119438594
9904.0,0.21658500741301567
9908.0,0.22445127718499383
9912.0,0.21323971956962748
9916.0,0.21197555061857026
9920.0,0.18237717313162022
9924.0,0.15678016436327882
9928.0,0.12423055407950623
9932.0,0.10594242220725623
9936.0,0.08791557550318804
9940.0,0.040121576478400256
9944.0,-0.017985966156664753
9948.0,-0.008227353051826605
9952.0,-0.004105717770884474
9956.0,0.019259833441620782
9960.0,0.017372828246001556
9964.0,0.007923988225848848
9968.0,0.0029634559991763734
9972.0,0.017854192736085708
9976.0,0.007513351872919833
9980.0,0.0031073641343066765
9984.0,-0.006919790069114722
9988.0,-0.005937745666315279
9992.0,0.0011457724238681983
9996.0,0.00042801317808500636
10000.0,0.0105313883855764
10004.0,0.012810162554264336
10008.0,-0.01984420030642599
10012.0,0.007313901125927231
10016.0,0.018206621326845873
10020.0,0.008636291641507421
10024.0,-0.0035119990847380673
10028.0,-0.031357285249110786
10032.0,-0.08409237181536025
10036.0,-0.12472222713098043
10040.0,-0.19385733278360587
10044.0,0.014198438288175354
10048.0,0.21047579994440452
10052.0,0.44275647072154856
10056.0,0.6461065440201923
10060.0,0.8818543635602383
10064.0,1.089992064935716
10068.0,0.8560234138677105
10072.0,0.6715057467737711
10076.0,0.431409377908889
10080.0,0.21333468009218667
10084.0,0.018291584762244385
10088.0,-0.08565565196697847
10092.0,-0.16993512206032366
10096.0,-0.2655766858188944
10100.0,-0.33306322723482307
10104.0,-0.2486257627765242
10108.0,-0.16163648053478563
10112.0,-0.07371626211253185
10116.0,-0.002828082506847537
10120.0,0.015766090663410025
10124.0,0.02172842896856137
10128.0,-0.003571610880452817
10132.0,-0.006494194942341724
10136.0,0.003320273079351102
10140.0,-0.015960225524800992
10144.0,5.173845508512331e-05
10148.0,-0.008021508014586863
10152.0,-0.0008082438995220208
10156.0,0.002354690854176656
10160.0,-0.0013421675372101175
10164.0,-0.006445296025254881
10168.0,-0.021148172636318602
10172.0,-0.01616352274623937
10176.0,-2.7389105206592168e-05
10180.0,-0.003252062669430701
10184.0,-0.0017177619954799165
10188.0,0.021693953337599183
10192.0,0.01264379875647786
10196.0,0.007226461899117314
10200.0,-0.00915885652667115
10204.0,0.009723446177307927
10208.0,-0.012327702878992297
10212.0,-0.003182851387080944
10216.0,-0.001327995380564582
10220.0,0.004447846529082768
10224.0,0.003192187174536722
10228.0,0.033432835323448144
10232.0,0.07357349554381715
10236.0,0.10992171011744765
10240.0,0.13545971763037187
10244.0,0.155131552587561
10248.0,0.19736007331069627
10252.0,0.21484620020978615
10256.0,0.24764244414104467
10260.0,0.2543829158867365
10264.0,0.2867142864315887
10268.0,0.2777680224336435
10272.0,0.30051335877430424
10276.0,0.3136874860496784
10280.0,0.3240133939784165
10284.0,0.317730192411299
10288.0,0.32132561865288906
10292.0,0.3204921515839499
10296.0,0.29802932882493727
10300.0,0.29569528130647066
10304.0,0.2824534956442112
10308.0,0.2755544133599721
10312.0,0.24219824072210258
10316.0,0.22398644392541622
10320.0,0.197425979014279
10324.0,0.1698289002932508
10328.0,0.12438227223264192
10332.0,0.10634251986013334
10336.0,0.08135367536013298
10340.0,0.04830997581114167
10344.0,-0.003022739420470897
10348.0,-0.005960804306090626
10352.0,-0.009972743374850155
10356.0,-0.012020461541816747
10360.0,-0.00046327964031621393
10364.0,0.005149843113027028
10368.0,-0.00874408803889858
10372.0,0.005812253985729831
10376.0,0.013834046673147892
10380.0,0.008058604292479666
10384.0,-0.006997921780082347
10388.0,-0.014143351439514376
10392.0,0.007424907266011919
10396.0,-0.017162826456842622
10400.0,0.013598758832043685
10404.0,0.01481153100260324
10408.0,-0.0017859363764560748
10412.0,0.003838018104455243
10416.0,0.002611760957621424
10420.0,-0.00640047898074159
10424.0,0.0
10428.0,0.0
10432.0,0.0
10436.0,0.0
10440.0,0.0
10444.0,0.0
10448.0,0.0
10452.0,0.0
10456.0,0.0
10460.0,0.0
10464.0,0.0
10468.0,0.0
10472.0,0.0
10476.0,0.0
10480.0,0.0
10484.0,0.0
10488.0,0.0
10492.0,0.0
10496.0,0.0
10500.0,0.0
10504.0,0.0
10508.0,0.0
10512.0,0.0
10516.0,0.0
10520.0,0.0
10524.0,0.0
10528.0,0.0
10532.0,0.0
10536.0,0.0
10540.0,0.0
10544.0,0.0
10548.0,0.0
10552.0,0.0
10556.0,0.0
10560.0,0.0
10564.0,0.0
10568.0,0.0
10572.0,0.0
10576.0,0.0
10580.0,0.0
10584.0,0.0
10588.0,0.0
10592.0,0.0
10596.0,0.0
10600.0,0.0
10604.0,0.0
10608.0,0.0
10612.0,0.0
10616.0,0.0
10620.0,0.0
10624.0,0.0
10628.0,0.0
10632.0,0.0
10636.0,0.0
10640.0,0.0
10644.0,0.0
10648.0,0.0
10652.0,0.0
10656.0,0.0
10660.0,0.0
10664.0,0.0
10668.0,0.0
10672.0,0.0
10676.0,0.0
10680.0,0.0
10684.0,0.0
10688.0,0.0
10692.0,0.0
10696.0,0.0
10700.0,0.0
10704.0,0.0
10708.0,0.0
10712.0,0.0
10716.0,0.0
10720.0,0.0
10724.0,0.0
10728.0,0.0
10732.0,0.0
10736.0,0.0
10740.0,0.0
10744.0,0.0
10748.0,0.0
10752.0,0.0
10756.0,0.0
10760.0,0.0
10764.0,0.0
10768.0,0.0
10772.0,0.0
10776.0,0.0
10780.0,0.0
10784.0,0.0
10788.0,0.0
10792.0,0.0
10796.0,0.0
10800.0,0.0
10804.0,0.0
10808.0,0.0
10812.0,0.0
10816.0,0.0
10820.0,0.0
10824.0,0.0
10828.0,0.0
10832.0,0.0
10836.0,0.0
10840.0,0.0
10844.0,0.0
10848.0,0.0
10852.0,0.0
10856.0,0.0
10860.0,0.0
10864.0,0.0
10868.0,0.0
10872.0,0.0
10876.0,0.0
10880.0,0.0
10884.0,0.0
10888.0,0.0
10892.0,0.0
10896.0,0.0
10900.0,0.0
10904.0,0.0
10908.0,0.0
10912.0,0.0
10916.0,0.0
10920.0,0.0
10924.0,0.0
10928.0,0.0
10932.0,0.0
10936.0,0.0
10940.0,0.0
10944.0,0.0
10948.0,0.0
10952.0,0.0
10956.0,0.0
10960.0,0.0
10964.0,0.0
10968.0,0.0
10972.0,0.0
10976.0,0.0
10980.0,0.0
10984.0,0.0
10988.0,0.0
10992.0,0.0
10996.0,0.0
11000.0,0.0
11004.0,0.0
11008.0,0.0
11012.0,0.0
11016.0,0.0
11020.0,0.0
11024.0,0.0
11028.0,0.0
11032.0,0.0
11036.0,0.0
11040.0,0.0
11044.0,0.0
11048.0,0.0
11052.0,0.0
11056.0,0.0
11060.0,0.0
11064.0,0.0
11068.0,0.0
11072.0,0.0
11076.0,0.0
11080.0,0.0
11084.0,0.0
11088.0,0.0
11092.0,0.0
11096.0,0.0
11100.0,0.0
11104.0,0.0
11108.0,0.0
11112.0,0.0
11116.0,0.0
11120.0,0.0
11124.0,0.0
11128.0,0.0
11132.0,0.0
11136.0,0.0
11140.0,0.0
11144.0,0.0
11148.0,0.0
11152.0,0.0
11156.0,-0.006877722452230728
11160.0,-0.022864850107160876
11164.0,0.007232973124766645
11168.0,0.006607594211696655
11172.0,0.0026795294951901744
11176.0,-0.02452476852774659
11180.0,-0.0003099609672339605
11184.0,0.001426248646817076
11188.0,0.0015963243024636861
11192.0,-0.004115195415544701
11196.0,0.006294667315930005
11200.0,0.018778792836497537
11204.0,0.07601528459789922
11208.0,0.09286985106259038
11212.0,0.11764332842568671
11216.0,0.17557874473871507
11220.0,0.17429719420473333
11224.0,0.19305777118296874
11228.0,0.20378583402317413
11232.0,0.21833595626898905
11236.0,0.23448958501599576
11240.0,0.20780396258201833
11244.0,0.20601993370495153
11248.0,0.19162181775094037
11252.0,0.18650901287616747
11256.0,0.16849187647538044
11260.0,0.11738958929747997
11264.0,0.08995584192821483
11268.0,0.06763111103196037
11272.0,0.004100352286510456
11276.0,0.007947061703844533
11280.0,-0.0004239141139783694
11284.0,-0.004472295648711371
11288.0,0.010237393485202513
11292.0,0.007320617848098746
11296.0,-0.004129171186112628
11300.0,-0.007240158846928689
11304.0,-0.0003905100144400743
11308.0,0.00266598066718449
11312.0,-0.006847110014897655
11316.0,-0.011839114451545141
11320.0,0.001630794050231317
11324.0,-0.006754992974549143
11328.0,0.009188592638624466
11332.0,-0.011626225276938651
11336.0,0.012624522078681238
11340.0,0.007713451019373588
11344.0,-0.0066224260224584585
11348.0,0.004328525287141606
11352.0,0.005813658276032902
11356.0,0.0030609645665633516
11360.0,-0.04901925562831415
11364.0,-0.09625828094156613
11368.0,-0.13907230250138322
11372.0,-0.17003017657285452
11376.0,-0.022685658595636406
11380.0,0.21028036951707368
11384.0,0.44782734627974186
11388.0,0.6665694417815577
11392.0,0.8883842125508746
11396.0,1.093536500212192
11400.0,0.8727792886045629
11404.0,0.6459111702364748
11408.0,0.4509468545109139
11412.0,0.20864352570294056
11416.0,0.0029050990305788623
11420.0,-0.08037290454479484
11424.0,-0.16868251855470526
11428.0,-0.24982819879125118
11432.0,-0.32641547546537397
11436.0,-0.23384359494271584
11440.0,-0.1638400584651005
11444.0,-0.08657495797089403
11448.0,0.0020403918344375637
11452.0,0.0018422536745846963
11456.0,0.0034304746849858126
11460.0,0.00944382578884981
11464.0,0.01491557645316608
11468.0,-0.017054868716370585
11472.0,0.019379412929860652
11476.0,0.0008160796392783102
11480.0,0.0007211081246784259
11484.0,0.007358582289756492
11488.0,-0.0026866438051551633
11492.0,0.002740376187396172
11496.0,0.010677012174045654
11500.0,0.006620575214681628
11504.0,0.008787484588945333
11508.0,-0.0006469771287511028
11512.0,-0.012362404658606291
11516.0,-0.0038739249269008785
11520.0,-0.017842994344218287
11524.0,0.007177623953578035
11528.0,0.0008129030139526419
11532.0,0.009599759804744265
11536.0,0.0147478058316414
11540.0,-0.014455658434816793
11544.0,0.005920969986042254
11548.0,-0.002603073282558956
11552.0,0.0018423587099961585
11556.0,-0.009112978208373729
11560.0,0.019961651201461608
11564.0,0.07751955802433827
11568.0,0.08941381055524916
11572.0,0.13928784829837298
11576.0,0.17816295002473415
11580.0,0.20141299460304266
11584.0,0.21475423408396452
11588.0,0.2590073786004552
11592.0,0.2757102662968933
11596.0,0.2869651280038931
11600.0,0.30180314382838
11604.0,0.31432168560899837
11608.0,0.31466762372529017
11612.0,0.3351592427539507
11616.0,0.320288585635586
11620.0,0.3245998938796078
11624.0,0.322564450050458
11628.0,0.30315585329685685
11632.0,0.2923735843902572
11636.0,0.28255755657826526
11640.0,0.2530941903482248
11644.0,0.2570648706110081
11648.0,0.20774737889718486
11652.0,0.18318779281073477
11656.0,0.16767657255263607
11660.0,0.11955057750318905
11664.0,0.09248281119066348
11668.0,0.07402498733151859
11672.0,0.030336835347237506
11676.0,-0.009313138540254198
11680.0,-0.014706307536655186
11684.0,0.007575220371000256
11688.0,0.00064181143940192
11692.0,0.012311074146761355
11696.0,0.007163906979570671
11700.0,0.0022023732594794645
11704.0,0.005360380776282595
11708.0,-0.013880624596610333
11712.0,0.0066360872599733126
11716.0,0.00016603805710247715
11720.0,0.005688642134723725
11724.0,-0.009210365470744117
11728.0,-0.01410997455061885
11732.0,0.018079594070171935
11736.0,0.007014853890492696
11740.0,-0.005534478062062388
11744.0,-0.016725831426253973
11748.0,0.004903928954965189
11752.0,-0.00399611608604332
11756.0,0.0
11760.0,0.0
11764.0,0.0
11768.0,0.0
11772.0,0.0
11776.0,0.0
11780.0,0.0
11784.0,0.0
11788.0,0.0
11792.0,0.0
11796.0,0.0
11800.0,0.0
11804.0,0.0
11808.0,0.0
11812.0,0.0
11816.0,0.0
11820.0,0.0
11824.0,0.0
11828.0,0.0
11832.0,0.0
11836.0,0.0
11840.0,0.0
11844.0,0.0
11848.0,0.0
11852.0,0.0
11856.0,0.0
11860.0,0.0
11864.0,0.0
11868.0,0.0
11872.0,0.0
11876.0,0.0
11880.0,0.0
11884.0,0.0
11888.0,0.0
11892.0,0.0
11896.0,0.0
11900.0,0.0
11904.0,0.0
11908.0,0.0
11912.0,0.0
11916.0,0.0
11920.0,0.0
11924.0,0.0
11928.0,0.0
11932.0,0.0
11936.0,0.0
11940.0,0.0
11944.0,0.0
11948.0,0.0
11952.0,0.0
11956.0,0.0
11960.0,0.0
11964.0,0.0
11968.0,0.0
11972.0,0.0
11976.0,0.0
11980.0,0.0
11984.0,0.0
11988.0,0.0
11992.0,0.0
11996.0,0.0
12000.0,0.0
12004.0,0.0
12008.0,0.0
12012.0,0.0
12016.0,0.0
12020.0,0.0
12024.0,0.0
12028.0,0.0
12032.0,0.0
12036.0,0.0
12040.0,0.0
12044.0,0.0
12048.0,0.0
12052.0,0.0
12056.0,0.0
12060.0,0.0
12064.0,0.0
12068.0,0.0
12072.0,0.0
12076.0,0.0
12080.0,0.0
12084.0,0.0
12088.0,0.0
12092.0,0.0
12096.0,0.0
12100.0,0.0
12104.0,0.0
12108.0,0.0
12112.0,0.0
12116.0,0.0
12120.0,0.0
12124.0,0.0
12128.0,0.0
12132.0,0.0
12136.0,0.0
12140.0,0.0
12144.0,0.0
12148.0,0.0
12152.0,0.0
12156.0,0.0
12160.0,0.0
12164.0,0.0
12168.0,0.0
12172.0,0.0
12176.0,0.0
12180.0,0.0
12184.0,0.0
12188.0,0.0
12192.0,0.0
12196.0,0.0
12200.0,0.0
12204.0,0.0
12208.0,0.0
12212.0,0.0
12216.0,0.0
12220.0,0.0
12224.0,0.0
12228.0,0.0
12232.0,0.0
12236.0,0.0
12240.0,0.0
12244.0,0.0
12248.0,0.0
12252.0,0.0
12256.0,0.0
12260.0,0.0
12264.0,0.0
12268.0,0.0
12272.0,0.0
12276.0,0.0
12280.0,0.0
12284.0,0.0
12288.0,0.0
12292.0,0.0
12296.0,0.0
12300.0,0.0
12304.0,0.0
12308.0,0.0
12312.0,0.0
12316.0,0.0
12320.0,0.0
12324.0,0.0
12328.0,0.0
12332.0,0.0
12336.0,0.0
12340.0,0.0
12344.0,0.0
12348.0,0.0
12352.0,0.0
12356.0,0.0
12360.0,0.0
12364.0,0.0
12368.0,0.0
12372.0,0.0
12376.0,0.0
12380.0,0.0
12384.0,0.0
12388.0,0.0
12392.0,0.0
12396.0,0.0
12400.0,0.0
12404.0,0.0
12408.0,0.0
12412.0,0.0
12416.0,0.0
12420.0,0.0
12424.0,0.0
12428.0,0.0
12432.0,0.0
12436.0,0.0
12440.0,0.0
12444.0,0.0
12448.0,0.0
12452.0,0.0
12456.0,0.0
12460.0,0.0
12464.0,0.0
12468.0,0.0
12472.0,0.0
12476.0,0.0
12480.0,0.0
12484.0,0.0
12488.0,0.0034299254476347924
12492.0,-0.017455664827273818
12496.0,-0.005924336062511398
12500.0,-0.0066241873989130754
12504.0,-0.0025488635753239137
12508.0,0.016037427210232786
12512.0,-0.033824529340234284
12516.0,0.0011638687219924465
12520.0,-0.0057275365501256925
12524.0,0.01885802594127004
12528.0,-0.007444199034307799
12532.0,0.04095882051769946
12536.0,0.055655363666302644
12540.0,0.0942407748530353
12544.0,0.1459752524052969
12548.0,0.1458053701613971
12552.0,0.18210505848273018
12556.0,0.1930016138260705
12560.0,0.21379990041497804
12564.0,0.21012960112844856
12568.0,0.20641160732789138
12572.0,0.21446515336445476
12576.0,0.2138946847414488
12580.0,0.20224243841607742
12584.0,0.1907398944360146
12588.0,0.14436328672479656
12592.0,0.12918882126237244
12596.0,0.09593465198656222
12600.0,0.07452292915471692
12604.0,0.028664375899067323
12608.0,-0.005201527740991351
12612.0,-0.009335645268934137
12616.0,-0.0008062604959023776
12620.0,0.013255320845899504
12624.0,-0.0029461091558427997
12628.0,0.01123199809536648
12632.0,-0.00594446658843403
12636.0,0.0022426658592274345
12640.0,0.010713815082940583
12644.0,-0.00876138296892694
12648.0,0.020810928067136854
12652.0,-0.01664175954763109
12656.0,-0.0024417947502460295
12660.0,0.0036112039851360195
12664.0,0.007266151159249178
12668.0,0.022985046779993638
12672.0,0.010435761683543073
12676.0,-0.005007888098398971
12680.0,0.0012407049465195782
12684.0,0.017599737365683973
12688.0,-0.004412380193228106
12692.0,-0.022401521846921558
12696.0,-0.08479864776844667
12700.0,-0.13889180797912135
12704.0,-0.15973223825774624
12708.0,-0.00043154947399688643
12712.0,0.22302331862865507
12716.0,0.44385197871573445
12720.0,0.6662663189438235
12724.0,0.8760175271852102
12728.0,1.102219294261232
12732.0,0.8814635052245949
12736.0,0.6580925112615998
12740.0,0.4518660158132164
12744.0,0.1959031109829633
12748.0,-0.008409504389613565
12752.0,-0.10161345859728588
12756.0,-0.16834534007001642
12760.0,-0.23129435576500765
12764.0,-0.32592960657874837
12768.0,-0.24461825534386944
12772.0,-0.1632273081213977
12776.0,-0.08895609027896009
12780.0,0.011584381899812627
12784.0,-0.00889514603710891
12788.0,0.0015903524812303153
12792.0,0.0055545803578788775
12796.0,0.017663328567991785
12800.0,0.004043908144798194
12804.0,-0.0030504111937338053
12808.0,-0.02056080938328967
12812.0,0.008337986706380997
12816.0,-0.010535359840908417
12820.0,-0.01415816604568891
12824.0,-0.01801569123572832
12828.0,0.010275397513816953
12832.0,0.006368422048810818
12836.0,-0.012631093217564069
12840.0,-0.0003850686620996901
12844.0,-0.0008104650329403198
12848.0,0.006605674172122015
12852.0,0.012660554966360746
12856.0,0.008183065963370442
12860.0,0.01015196489491798
12864.0,-0.005238397091587798
12868.0,0.008068476364886893
12872.0,-0.0010698143327734337
12876.0,-0.007799983321998748
12880.0,0.01178313917176697
12884.0,-0.007314860418667711
12888.0,0.0036920782825054254
12892.0,0.028312717913728844
12896.0,0.06739359916454385
12900.0,0.08770169771962864
12904.0,0.11696491575261625
12908.0,0.1668544648571252
12912.0,0.19938245744856703
12916.0,0.22871234300527088
12920.0,0.2316732955422677
12924.0,0.26426216132018177
12928.0,0.2913313655890052
12932.0,0.2932933751405103
12936.0,0.3145342481637772
12940.0,0.30657706454102335
12944.0,0.32291241542966204
12948.0,0.3209369834956448
12952.0,0.3101269678982218
12956.0,0.3250906528568697
12960.0,0.3121708274893614
12964.0,0.2849588644958672
12968.0,0.2825874504968865
12972.0,0.25450837800478127
12976.0,0.2433359000016776
12980.0,0.21939057575582846
12984.0,0.19339767387612727
12988.0,0.17098076673654977
12992.0,0.12389126625891797
12996.0,0.10735181631143544
13000.0,0.06216284426794641
13004.0,0.031087857082872993
13008.0,0.0018444147921031233
13012.0,-0.007421716365581187
13016.0,-0.002201504218188192
13020.0,-0.006442955714624683
13024.0,-0.007171967469739757
13028.0,-0.0051371380713757095
13032.0,0.003988849951035839
13036.0,0.0014681945338099274
13040.0,-0.018432309172562087
13044.0,-0.007260995558685704
13048.0,-0.006532509505819851
13052.0,-0.014678180725220605
13056.0,0.012865924885197754
13060.0,-0.0008901195769914693
13064.0,0.00438138743960034
13068.0,-0.001752186869139772
13072.0,0.0034485052646919703
13076.0,0.010560834248298978
13080.0,-0.010527936611727231
13084.0,-0.0033612193267562717
13088.0,0.0
13092.0,0.0
13096.0,0.0
13100.0,0.0
13104.0,0.0
13108.0,0.0
13112.0,0.0
13116.0,0.0
13120.0,0.0
13124.0,0.0
13128.0,0.0
13132.0,0.0
13136.0,0.0
13140.0,0.0
13144.0,0.0
13148.0,0.0
13152.0,0.0
13156.0,0.0
13160.0,0.0
13164.0,0.0
13168.0,0.0
13172.0,0.0
13176.0,0.0
13180.0,0.0
13184.0,0.0
13188.0,0.0
13192.0,0.0
13196.0,0.0
13200.0,0.0
13204.0,0.0
13208.0,0.0
13212.0,0.0
13216.0,0.0
13220.0,0.0
13224.0,0.0
13228.0,0.0
13232.0,0.0
13236.0,0.0
13240.0,0.0
13244.0,0.0
13248.0,0.0
13252.0,0.0
13256.0,0.0
13260.0,0.0
13264.0,0.0
13268.0,0.0
13272.0,0.0
13276.0,0.0
13280.0,0.0
13284.0,0.0
13288.0,0.0
13292.0,0.0
13296.0,0.0
13300.0,0.0
13304.0,0.0
13308.0,0.0
13312.0,0.0
13316.0,0.0
13320.0,0.0
13324.0,0.0
13328.0,0.0
13332.0,0.0
13336.0,0.0
13340.0,0.0
13344.0,0.0
13348.0,0.0
13352.0,0.0
13356.0,0.0
13360.0,0.0
13364.0,0.0
13368.0,0.0
13372.0,0.0
13376.0,0.0
13380.0,0.0
13384.0,0.0
13388.0,0.0
13392.0,0.0
13396.0,0.0
13400.0,0.0
13404.0,0.0
13408.0,0.0
13412.0,0.0
13416.0,0.0
13420.0,0.0
13424.0,0.0
13428.0,0.0
13432.0,0.0
13436.0,0.0
13440.0,0.0
13444.0,0.0
13448.0,0.0
13452.0,0.0
13456.0,0.0
13460.0,0.0
13464.0,0.0
13468.0,0.0
13472.0,0.0
13476.0,0.0
13480.0,0.0
13484.0,0.0
13488.0,0.0
13492.0,0.0
13496.0,0.0
13500.0,0.0
13504.0,0.0
13508.0,0.0
13512.0,0.0
13516.0,0.0
13520.0,0.0
13524.0,0.0
13528.0,0.0
13532.0,0.0
13536.0,0.0
13540.0,0.0
13544.0,0.0
13548.0,0.0
13552.0,0.0
13556.0,0.0
13560.0,0.0
13564.0,0.0
13568.0,0.0
13572.0,0.0
13576.0,0.0
13580.0,0.0
13584.0,0.0
13588.0,0.0
13592.0,0.0
13596.0,0.0
13600.0,0.0
13604.0,0.0
13608.0,0.0
13612.0,0.0
13616.0,0.0
13620.0,0.0
13624.0,0.0
13628.0,0.0
13632.0,0.0
13636.0,0.0
13640.0,0.0
13644.0,0.0
13648.0,0.0
13652.0,0.0
13656.0,0.0
13660.0,0.0
13664.0,0.0
13668.0,0.0
13672.0,0.0
13676.0,0.0
13680.0,0.0
13684.0,0.0
13688.0,0.0
13692.0,0.0
13696.0,0.0
13700.0,0.0
13704.0,0.0
13708.0,0.0
13712.0,0.0
13716.0,0.0
13720.0,0.0
13724.0,0.0
13728.0,0.0
13732.0,0.0
13736.0,0.0
13740.0,0.0
13744.0,0.0
13748.0,0.0
13752.0,0.0
13756.0,0.0
13760.0,0.0
13764.0,0.0
13768.0,0.0
13772.0,0.0
13776.0,0.0
13780.0,0.0
13784.0,0.0
13788.0,0.0
13792.0,0.0
13796.0,0.0
13800.0,0.0
13804.0,0.0
13808.0,0.0
13812.0,0.0
13816.0,0.0
13820.0,0.0022692595724495782
13824.0,0.005577946616568043
13828.0,-0.008231506282806512
13832.0,-0.006003963185160815
13836.0,0.0056929681518440335
13840.0,-0.01258103052783351
13844.0,-0.000364233408963333
13848.0,-0.014465543672606905
13852.0,-0.005948192900470652
13856.0,-0.002514082584364424
13860.0,0.012881779534735046
13864.0,0.04409274811287968
13868.0,0.0690707757715646
13872.0,0.08720000891547966
13876.0,0.13190179426670462
13880.0,0.16437707682930897
13884.0,0.16560258651351886
13888.0,0.18980524267264168
13892.0,0.23238055275358516
13896.0,0.2204514341101538
13900.0,0.2212729763297136
13904.0,0.20710967646965903
13908.0,0.21985304635285063
13912.0,0.20748767808001717
13916.0,0.18892141934318626
13920.0,0.14463805653756
13924.0,0.12464384003386614
13928.0,0.09925893373510104
13932.0,0.07571338418732346
13936.0,0.0053775736843782035
13940.0,0.006330429946874621
13944.0,-0.012091853398900388
13948.0,-0.016476545581029615
13952.0,0.005356127562736079
13956.0,-0.0035563051447836686
13960.0,-0.005163460605107219
13964.0,0.005845738919769507
13968.0,-0.004411789720443654
13972.0,0.009431836342205964
13976.0,0.006812815557714596
13980.0,-0.0028731986684649748
13984.0,-0.006090744995398606
13988.0,-0.021540270865528375
13992.0,-0.00633095399702055
13996.0,0.0019563512807102075
14000.0,0.01063723207371029
14004.0,-0.008355815382107118
14008.0,0.010688700072247244
14012.0,0.014581836160719338
14016.0,0.029108542016477383
14020.0,-0.015441550055431701
14024.0,-0.06599149194087275
14028.0,-0.09431537311160879
14032.0,-0.12850089404287926
14036.0,-0.16407576984844208
14040.0,0.0015052188963469765
14044.0,0.22318159947988087
14048.0,0.442305438134048
14052.0,0.6808746273541678
14056.0,0.8792459775600164
14060.0,1.095202329464851
14064.0,0.8792665700709369
14068.0,0.6706794284028135
14072.0,0.444289153201045
14076.0,0.23359101198003543
14080.0,0.011485441964094867
14084.0,-0.07568772278518013
14088.0,-0.15501630790619864
14092.0,-0.25166241882847235
14096.0,-0.3347397714907146
14100.0,-0.24303950643014932
14104.0,-0.14151717641030984
14108.0,-0.07800775450969556
14112.0,0.017723038523050984
14116.0,-0.01715141298087947
14120.0,-0.008052040885406427
14124.0,-0.003986587375454337
14128.0,-0.0037193934691512383
14132.0,0.00477231206990131
14136.0,-0.001439665363212759
14140.0,-0.012503371925062977
14144.0,0.007529949940398433
14148.0,0.008504476259989721
14152.0,0.0012543335826223695
14156.0,0.002772527494596791
14160.0,0.009034038744235364
14164.0,-0.01192766797235312
14168.0,-0.01170532837519528
14172.0,-0.011094519665605651
14176.0,0.011580790035379014
14180.0,-0.01180489435379585
14184.0,0.01074707687278532
14188.0,0.020293779635642238
14192.0,-0.005017514324411598
14196.0,0.017988250191067805
14200.0,0.002069700030985835
14204.0,-0.004625259112248294
14208.0,-0.009355019343633099
14212.0,-0.0017222113286937556
14216.0,-0.008447183716950446
14220.0,0.0013491351907542418
14224.0,0.02903300548082713
14228.0,0.07012805551866429
14232.0,0.0975466951072915
14236.0,0.13881967660921793
14240.0,0.17520586897615556
14244.0,0.18837558119147157
14248.0,0.22584131538469843
14252.0,0.253820107749067
14256.0,0.2761848989576788
14260.0,0.2761504303634109
14264.0,0.294891231532233
14268.0,0.30564510848009485
14272.0,0.3228467990083049
14276.0,0.3225296396342327
14280.0,0.3362639626508389
14284.0,0.3319580840469966
14288.0,0.3381367375816382
14292.0,0.32123176926526265
14296.0,0.30934086621716284
14300.0,0.2918109856935874
14304.0,0.258683861708315
14308.0,0.25394012050417575
14312.0,0.21382001804394618
14316.0,0.19238941061489911
14320.0,0.17377418947506876
14324.0,0.1548429148071561
14328.0,0.10807991594789002
14332.0,0.06638882841039108
14336.0,0.04110873336231693
14340.0,0.000292805384520288
14344.0,0.007264206563471835
14348.0,0.0028736065647952404
14352.0,0.004366817407874293
14356.0,0.006349441716200673
14360.0,-0.014873001476304057
14364.0,0.027488794012502635
14368.0,-0.00017028495298510902
14372.0,-0.01949055059790049
14376.0,0.0031132183181502154
14380.0,0.018217351493791275
14384.0,-0.01977025172246051
14388.0,-0.002206782416485941
14392.0,-0.008280696654366848
14396.0,0.008709956914990475
14400.0,-0.0007112674965437834
14404.0,0.0007141410110567939
14408.0,-0.004034439871490887
14412.0,0.011277687018952326
14416.0,0.009148694657031877
14420.0,0.0
14424.0,0.0
14428.0,0.0
14432.0,0.0
14436.0,0.0
14440.0,0.0
14444.0,0.0
14448.0,0.0
14452.0,0.0
14456.0,0.0
14460.0,0.0
14464.0,0.0
14468.0,0.0
14472.0,0.0
14476.0,0.0
14480.0,0.0
14484.0,0.0
14488.0,0.0
14492.0,0.0
14496.0,0.0
14500.0,0.0
14504.0,0.0
14508.0,0.0
14512.0,0.0
14516.0,0.0
14520.0,0.0
14524.0,0.0
14528.0,0.0
14532.0,0.0
14536.0,0.0
14540.0,0.0
14544.0,0.0
14548.0,0.0
14552.0,0.0
14556.0,0.0
14560.0,0.0
14564.0,0.0
14568.0,0.0
14572.0,0.0
14576.0,0.0
14580.0,0.0
14584.0,0.0
14588.0,0.0
14592.0,0.0
14596.0,0.0
14600.0,0.0
14604.0,0.0
14608.0,0.0
14612.0,0.0
14616.0,0.0
14620.0,0.0
14624.0,0.0
14628.0,0.0
14632.0,0.0
14636.0,0.0
14640.0,0.0
14644.0,0.0
14648.0,0.0
14652.0,0.0
14656.0,0.0
14660.0,0.0
14664.0,0.0
14668.0,0.0
14672.0,0.0
14676.0,0.0
14680.0,0.0
14684.0,0.0
14688.0,0.0
14692.0,0.0
14696.0,0.0
14700.0,0.0
14704.0,0.0
14708.0,0.0
14712.0,0.0
14716.0,0.0
14720.0,0.0
14724.0,0.0
14728.0,0.0
14732.0,0.0
14736.0,0.0
14740.0,0.0
14744.0,0.0
14748.0,0.0
14752.0,0.0
14756.0,0.0
14760.0,0.0
14764.0,0.0
14768.0,0.0
14772.0,0.0
14776.0,0.0
14780.0,0.0
14784.0,0.0
14788.0,0.0
14792.0,0.0
14796.0,0.0
14800.0,0.0
14804.0,0.0
14808.0,0.0
14812.0,0.0
14816.0,0.0
14820.0,0.0
14824.0,0.0
14828.0,0.0
14832.0,0.0
14836.0,0.0
14840.0,0.0
14844.0,0.0
14848.0,0.0
14852.0,0.0
14856.0,0.0
14860.0,0.0
14864.0,0.0
14868.0,0.0
14872.0,0.0
14876.0,0.0
14880.0,0.0
14884.0,0.0
14888.0,0.0
14892.0,0.0
14896.0,0.0
14900.0,0.0
14904.0,0.0
14908.0,0.0
14912.0,0.0
14916.0,0.0
14920.0,0.0
14924.0,0.0
14928.0,0.0
14932.0,0.0
14936.0,0.0
14940.0,0.0
14944.0,0.0
14948.0,0.0
14952.0,0.0
14956.0,0.0
14960.0,0.0
14964.0,0.0
14968.0,0.0
14972.0,0.0
14976.0,0.0
14980.0,0.0
14984.0,0.0
14988.0,0.0
14992.0,0.0
14996.0,0.0
15000.0,0.0
15004.0,0.0
15008.0,0.0
15012.0,0.0
15016.0,0.0
15020.0,0.0
15024.0,0.0
15028.0,0.0
15032.0,0.0
15036.0,0.0
15040.0,0.0
15044.0,0.0
15048.0,0.0
15052.0,0.0
15056.0,0.0
15060.0,0.0
15064.0,0.0
15068.0,0.0
15072.0,0.0
15076.0,0.0
15080.0,0.0
15084.0,0.0
15088.0,0.0
15092.0,0.0
15096.0,0.0
15100.0,0.0
15104.0,0.0
15108.0,0.0
15112.0,0.0
15116.0,0.0
15120.0,0.0
15124.0,0.0
15128.0,0.0
15132.0,0.0
15136.0,0.0
15140.0,0.0
15144.0,0.0
15148.0,0.0
15152.0,-0.007698511944212029
15156.0,-0.002946975606746413
15160.0,-0.0047180426485556775
15164.0,-0.00042872528530326173
15168.0,0.011576401872867847
15172.0,-0.012910744024092074
15176.0,0.005693580626016706
15180.0,-0.015732335796716915
15184.0,0.0005384415108561449
15188.0,-0.004908541478659831
15192.0,0.022076858943761105
15196.0,0.03902797895299044
15200.0,0.05501576221414147
15204.0,0.09589945999905804
15208.0,0.10989255434366899
15212.0,0.15554040576506084
15216.0,0.18288810547218823
15220.0,0.20927181236610012
15224.0,0.21407201890340527
15228.0,0.20589510931628194
15232.0,0.23584109914075918
15236.0,0.22441276393736087
15240.0,0.20201841422975061
15244.0,0.20231010413245962
15248.0,0.18292952487769074
15252.0,0.13137150283802543
15256.0,0.14084519799230893
15260.0,0.09471081541853077
15264.0,0.08237076489913957
15268.0,0.019681596079406866
15272.0,-0.00294669520919558
15276.0,0.0033907844222265636
15280.0,-0.012270746272608444
15284.0,0.002334659116231189
15288.0,0.012571235043213785
15292.0,-0.008989535964671834
15296.0,-0.012880665186448625
15300.0,0.010659069108387745
15304.0,0.002816090248820513
15308.0,-0.01000660577336879
15312.0,-0.007289998461217603
15316.0,0.0016233909068627003
15320.0,-0.012833465802977633
15324.0,-0.002191550043163068
15328.0,0.012250869585555369
15332.0,0.009186201891254617
15336.0,0.0017192959620392883
15340.0,-0.005508922073075687
15344.0,0.008727725100178916
15348.0,0.0013594378050812525
15352.0,-0.0024962836547424362
15356.0,-0.04449608190885723
15360.0,-0.09636933574245717
15364.0,-0.12553748107747825
15368.0,-0.18681159708580725
15372.0,-0.01119877663717216
15376.0,0.20777347538795538
15380.0,0.44513907430418787
15384.0,0.6576565141131238
15388.0,0.8785867908122762
15392.0,1.0845508907679429
15396.0,0.8800465757501527
15400.0,0.6790409994978797
15404.0,0.43008252392213897
15408.0,0.23917138622275808
15412.0,0.010348116812987678
15416.0,-0.09583810691623013
15420.0,-0.17650844229039842
15424.0,-0.23950941613272825
15428.0,-0.33369442328475835
15432.0,-0.24175985576492948
15436.0,-0.1808658155530073
15440.0,-0.08258179218946508
15444.0,-0.022913057644198855
15448.0,-0.015539193180199624
15452.0,-0.001746992515837941
15456.0,0.0026996041821939903
15460.0,-0.015163989103000411
15464.0,-4.832299286607288e-05
15468.0,-0.012049789728755218
15472.0,-0.0009146062108149342
15476.0,-0.017744130915418148
15480.0,-0.002760091279227494
15484.0,-0.003670225514035721
15488.0,-0.007348457049466359
15492.0,0.0016749020779401255
15496.0,-0.018588276705394206
15500.0,-0.009585111086942016
15504.0,0.01085258079303252
15508.0,-0.003388146430045014
15512.0,0.004793975696467535
15516.0,0.014265413170780951
15520.0,-0.004093206887720209
15524.0,-0.004732445338474777
15528.0,-0.005017907257296038
15532.0,0.0030123690497651694
15536.0,0.003101884778401422
15540.0,0.005761028631323689
15544.0,0.0073266132264171915
15548.0,-0.003819262598452512
15552.0,0.002465880902993783
15556.0,0.031121744129054003
15560.0,0.06520395287875616
15564.0,0.08835666033676735
15568.0,0.12252709820906292
15572.0,0.17730812871765
15576.0,0.19831868091222088
15580.0,0.23022891998192663
15584.0,0.24392004660177907
15588.0,0.2560218230407517
15592.0,0.2688583847560755
15596.0,0.2898930793294621
15600.0,0.307620052875048
15604.0,0.3215925655940183
15608.0,0.3440006650793284
15612.0,0.3244002727135788
15616.0,0.33678471452715547
15620.0,0.335058298248254
15624.0,0.31231893203255534
15628.0,0.3003389495051308
15632.0,0.2910396053573422
15636.0,0.2694541689718679
15640.0,0.23757161532634433
15644.0,0.23323518553636613
15648.0,0.1844409068374756
15652.0,0.16317924268341633
15656.0,0.12958693959434128
15660.0,0.09902828594726312
15664.0,0.06698705485362025
15668.0,0.033151747758574344
15672.0,0.012435551997528091
15676.0,-0.0019393248664942196
15680.0,-0.01147124234714345
15684.0,0.006919947362324704
15688.0,-0.012771768620944953
15692.0,-0.00022470106462232198
15696.0,-0.0050862405753143445
15700.0,0.0037865098558002783
15704.0,0.01676978285007227
15708.0,0.001143989238239864
15712.0,-0.008418192692759974
15716.0,0.00908019273116443
15720.0,-0.004836225457068905
15724.0,0.0018470352987656348
15728.0,-0.0007169183703571021
15732.0,-0.0003774445407861599
15736.0,-0.010403396514970829
15740.0,0.006878281162867508
15744.0,-0.007986952433768062
15748.0,0.001675737757831695
15752.0,0.0
15756.0,0.0
15760.0,0.0
15764.0,0.0
15768.0,0.0
15772.0,0.0
15776.0,0.0
15780.0,0.0
15784.0,0.0
15788.0,0.0
15792.0,0.0
15796.0,0.0
15800.0,0.0
15804.0,0.0
15808.0,0.0
15812.0,0.0
15816.0,0.0
15820.0,0.0
15824.0,0.0
15828.0,0.0
15832.0,0.0
15836.0,0.0
15840.0,0.0
15844.0,0.0
15848.0,0.0
15852.0,0.0
15856.0,0.0
15860.0,0.0
15864.0,0.0
15868.0,0.0
15872.0,0.0
15876.0,0.0
15880.0,0.0
15884.0,0.0
15888.0,0.0
15892.0,0.0
15896.0,0.0
15900.0,0.0
15904.0,0.0
15908.0,0.0
15912.0,0.0
15916.0,0.0
15920.0,0.0
15924.0,0.0
15928.0,0.0
15932.0,0.0
15936.0,0.0
15940.0,0.0
15944.0,0.0
15948.0,0.0
15952.0,0.0
15956.0,0.0
15960.0,0.0
15964.0,0.0
15968.0,0.0
15972.0,0.0
15976.0,0.0
15980.0,0.0
15984.0,0.0
15988.0,0.0
15992.0,0.0
15996.0,0.0
16000.0,0.0
16004.0,0.0
16008.0,0.0
16012.0,0.0
16016.0,0.0
16020.0,0.0
16024.0,0.0
16028.0,0.0
16032.0,0.0
16036.0,0.0
16040.0,0.0
16044.0,0.0
16048.0,0.0
16052.0,0.0
16056.0,0.0
16060.0,0.0
16064.0,0.0
16068.0,0.0
16072.0,0.0
16076.0,0.0
16080.0,0.0
16084.0,0.0
16088.0,0.0
16092.0,0.0
16096.0,0.0
16100.0,0.0
16104.0,0.0
16108.0,0.0
16112.0,0.0
16116.0,0.0
16120.0,0.0
16124.0,0.0
16128.0,0.0
16132.0,0.0
16136.0,0.0
16140.0,0.0
16144.0,0.0
16148.0,0.0
16152.0,0.0
16156.0,0.0
16160.0,0.0
16164.0,0.0
16168.0,0.0
16172.0,0.0
16176.0,0.0
16180.0,0.0
16184.0,0.0
16188.0,0.0
16192.0,0.0
16196.0,0.0
16200.0,0.0
16204.0,0.0
16208.0,0.0
16212.0,0.0
16216.0,0.0
16220.0,0.0
16224.0,0.0
16228.0,0.0
16232.0,0.0
16236.0,0.0
16240.0,0.0
16244.0,0.0
16248.0,0.0
16252.0,0.0
16256.0,0.0
16260.0,0.0
16264.0,0.0
16268.0,0.0
16272.0,0.0
16276.0,0.0
16280.0,0.0
16284.0,0.0
16288.0,0.0
16292.0,0.0
16296.0,0.0
16300.0,0.0
16304.0,0.0
16308.0,0.0
16312.0,0.0
16316.0,0.0
16320.0,0.0
16324.0,0.0
16328.0,0.0
16332.0,0.0
16336.0,0.0
16340.0,0.0
16344.0,0.0
16348.0,0.0
16352.0,0.0
16356.0,0.0
16360.0,0.0
16364.0,0.0
16368.0,0.0
16372.0,0.0
16376.0,0.0
16380.0,0.0
16384.0,0.0
16388.0,0.0
16392.0,0.0
16396.0,0.0
16400.0,0.0
16404.0,0.0
16408.0,0.0
16412.0,0.0
16416.0,0.0
16420.0,0.0
16424.0,0.0
16428.0,0.0
16432.0,0.0
16436.0,0.0
16440.0,0.0
16444.0,0.0
16448.0,0.0
16452.0,0.0
16456.0,0.0
16460.0,0.0
16464.0,0.0
16468.0,0.0
16472.0,0.0
16476.0,0.0
16480.0,0.0
16484.0,0.007311391741918258
16488.0,-0.009526983039501804
16492.0,0.013501040702242352
16496.0,0.00880052194512947
16500.0,-0.02427728705533194
16504.0,2.4532033632207914e-05
16508.0,0.004936834505303811
16512.0,0.020696329099506975
16516.0,-0.0018692091720845228
16520.0,0.02115643446388224
16524.0,-0.005942815444763822
16528.0,0.01801506769796797
16532.0,0.06274783796668944
16536.0,0.09800649480269012
16540.0,0.12175985875769059
16544.0,0.171716246168186
16548.0,0.17275905641766298
16552.0,0.19150117920195062
16556.0,0.2164713383402153
16560.0,0.22161041820831168
16564.0,0.22183142218972224
16568.0,0.23841533799763004
16572.0,0.21447532657382845
16576.0,0.18303887631811663
16580.0,0.16540579050430443
16584.0,0.1617672304850541
16588.0,0.13358589076762054
16592.0,0.11091557408572783
16596.0,0.05284244961048981
16600.0,0.034053712471028966
16604.0,0.006621979191164628
16608.0,0.0032852076375018235
16612.0,0.014871821999959825
16616.0,0.001270890034454622
16620.0,0.0007779624456785081
16624.0,-0.006002298434201286
16628.0,0.0049119038003067736
16632.0,0.005537099835945657
16636.0,-0.01129663821753783
16640.0,-0.004248958496389566
16644.0,-0.011249836850006988
16648.0,-0.0003587161394168142
16652.0,0.008948746927200298
16656.0,0.004677935369128193
16660.0,0.004779994073272276
16664.0,-0.0010900488635876672
16668.0,0.002357876304723891
16672.0,-0.011401229416625969
16676.0,0.0014336644483195452
16680.0,-0.01062660914484182
16684.0,0.0025716007575641154
16688.0,-0.027306624288131038
16692.0,-0.08970443582059552
16696.0,-0.11291452336409111
16700.0,-0.17387108815037214
16704.0,-0.004153057318276511
16708.0,0.22521833978841535
16712.0,0.4474173861034633
16716.0,0.6564599023867644
16720.0,0.8762497941682678
16724.0,1.1094169341629545
16728.0,0.882446306075108
16732.0,0.6706755902311846
16736.0,0.44541771454748685
16740.0,0.23315265453156087
16744.0,-0.007035146867332657
16748.0,-0.06956790779852735
16752.0,-0.15807377128476272
16756.0,-0.251272118102025
16760.0,-0.3366572593701588
16764.0,-0.25225945335375566
16768.0,-0.15531690662625644
16772.0,-0.07407304789799632
16776.0,0.007522616071781826
16780.0,0.026505680963595627
16784.0,0.0003754083525078561
16788.0,-0.0013067605958282085
16792.0,0.009692311817391807
16796.0,-0.0029951644433815674
16800.0,0.01979120808491203
16804.0,0.0023553372431953526
16808.0,0.004041339071751773
16812.0,-0.007999617636961926
16816.0,0.01688469286050323
16820.0,-0.009200546478065348
16824.0,0.01527815339616601
16828.0,0.0019891561995189506
16832.0,-0.006995883094498682
16836.0,0.007517562062829028
16840.0,0.008070227355402082
16844.0,0.003822268566487691
16848.0,0.01540255230705634
16852.0,0.0015065678606285212
16856.0,0.018211585497712342
16860.0,-0.002328045827362294
16864.0,0.01966754178439414
16868.0,0.004181373970306417
16872.0,0.0001312905339746343
16876.0,0.019834065807625624
16880.0,0.017204492184915435
16884.0,0.0037656061538591397
16888.0,0.02085361648174184
16892.0,0.07073731236807627
16896.0,0.09243723057171084
16900.0,0.12640538403380946
16904.0,0.16743879243162307
16908.0,0.1848813070374633
16912.0,0.2160590781186619
16916.0,0.2496168619470005
16920.0,0.2688635452442504
16924.0,0.2940385110617705
16928.0,0.30135727612881236
16932.0,0.3278272003151767
16936.0,0.33500928082120063
16940.0,0.3477619414016762
16944.0,0.31937345986608895
16948.0,0.32741454862804087
16952.0,0.3348868063194889
16956.0,0.317354506753839
16960.0,0.2996073491010799
16964.0,0.319696432936921
16968.0,0.28094361740228996
16972.0,0.24866727004417166
16976.0,0.2242102174566425
16980.0,0.185390393222756
16984.0,0.16418305609373635
16988.0,0.1443689936350385
16992.0,0.10960517637261288
16996.0,0.0712976585836582
17000.0,0.04661523789160137
17004.0,-0.007099108836344704
17008.0,-0.003930598599612019
17012.0,-0.00832428976148803
17016.0,-0.0015403853514082398
17020.0,-0.0057190225571072326
17024.0,0.0015916567007958774
17028.0,-0.0013569754191189102
17032.0,0.00048252498210541106
17036.0,0.010715959665411065
17040.0,0.004242600120638368
17044.0,-0.005634889212998982
17048.0,-0.01784778692385792
17052.0,0.004751648746501131
17056.0,-0.006286213470950365
17060.0,0.005029208761110698
17064.0,-0.011457284694772226
17068.0,-0.011040859686957895
17072.0,-0.015341692215986134
17076.0,-0.0059294909922187845
17080.0,0.013251621578582506
17084.0,0.0
17088.0,0.0
17092.0,0.0
17096.0,0.0
17100.0,0.0
17104.0,0.0
17108.0,0.0
17112.0,0.0
17116.0,0.0
17120.0,0.0
17124.0,0.0
17128.0,0.0
17132.0,0.0
17136.0,0.0
17140.0,0.0
17144.0,0.0
17148.0,0.0
17152.0,0.0
17156.0,0.0
17160.0,0.0
17164.0,0.0
17168.0,0.0
17172.0,0.0
17176.0,0.0
17180.0,0.0
17184.0,0.0
17188.0,0.0
17192.0,0.0
17196.0,0.0
17200.0,0.0
17204.0,0.0
17208.0,0.0
17212.0,0.0
17216.0,0.0
17220.0,0.0
17224.0,0.0
17228.0,0.0
17232.0,0.0
17236.0,0.0
17240.0,0.0
17244.0,0.0
17248.0,0.0
17252.0,0.0
17256.0,0.0
17260.0,0.0
17264.0,0.0
17268.0,0.0
17272.0,0.0
17276.0,0.0
17280.0,0.0
17284.0,0.0
17288.0,0.0
17292.0,0.0
17296.0,0.0
17300.0,0.0
17304.0,0.0
17308.0,0.0
17312.0,0.0
17316.0,0.0
17320.0,0.0
17324.0,0.0
17328.0,0.0
17332.0,0.0
17336.0,0.0
17340.0,0.0
17344.0,0.0
17348.0,0.0
17352.0,0.0
17356.0,0.0
17360.0,0.0
17364.0,0.0
17368.0,0.0
17372.0,0.0
17376.0,0.0
17380.0,0.0
17384.0,0.0
17388.0,0.0
17392.0,0.0
17396.0,0.0
17400.0,0.0
17404.0,0.0
17408.0,0.0
17412.0,0.0
17416.0,0.0
17420.0,0.0
17424.0,0.0
17428.0,0.0
17432.0,0.0
17436.0,0.0
17440.0,0.0
17444.0,0.0
17448.0,0.0
17452.0,0.0
17456.0,0.0
17460.0,0.0
17464.0,0.0
17468.0,0.0
17472.0,0.0
17476.0,0.0
17480.0,0.0
17484.0,0.0
17488.0,0.0
17492.0,0.0
17496.0,0.0
17500.0,0.0
17504.0,0.0
17508.0,0.0
17512.0,0.0
17516.0,0.0
17520.0,0.0
17524.0,0.0
17528.0,0.0
17532.0,0.0
17536.0,0.0
17540.0,0.0
17544.0,0.0
17548.0,0.0
17552.0,0.0
17556.0,0.0
17560.0,0.0
17564.0,0.0
17568.0,0.0
17572.0,0.0
17576.0,0.0
17580.0,0.0
17584.0,0.0
17588.0,0.0
17592.0,0.0
17596.0,0.0
17600.0,0.0
17604.0,0.0
17608.0,0.0
17612.0,0.0
17616.0,0.0
17620.0,0.0
17624.0,0.0
17628.0,0.0
17632.0,0.0
17636.0,0.0
17640.0,0.0
17644.0,0.0
17648.0,0.0
17652.0,0.0
17656.0,0.0
17660.0,0.0
17664.0,0.0
17668.0,0.0
17672.0,0.0
17676.0,0.0
17680.0,0.0
17684.0,0.0
17688.0,0.0
17692.0,0.0
17696.0,0.0
17700.0,0.0
17704.0,0.0
17708.0,0.0
17712.0,0.0
17716.0,0.0
17720.0,0.0
17724.0,0.0
17728.0,0.0
17732.0,0.0
17736.0,0.0
17740.0,0.0
17744.0,0.0
17748.0,0.0
17752.0,0.0
17756.0,0.0
17760.0,0.0
17764.0,0.0
17768.0,0.0
17772.0,0.0
17776.0,0.0
17780.0,0.0
17784.0,0.0
17788.0,0.0
17792.0,0.0
17796.0,0.0
17800.0,0.0
17804.0,0.0
17808.0,0.0
17812.0,0.0
17816.0,-0.028600605868196693
17820.0,0.005029360000360576
17824.0,-0.0025040846014357777
17828.0,0.009014807136252169
17832.0,7.840064529984671e-05
17836.0,0.008553073373407064
17840.0,-0.009569660541765874
17844.0,0.008521073070774082
17848.0,-0.00544692744423952
17852.0,0.015137887548322628
17856.0,-0.002522809711664533
17860.0,0.0417591411065253
17864.0,0.06992255174657828
17868.0,0.09532375663854223
17872.0,0.14160201800217376
17876.0,0.1701272208259521
17880.0,0.18409331160492712
17884.0,0.20502061089681783
17888.0,0.19858841455271095
17892.0,0.19377194788536975
17896.0,0.23395910468023864
17900.0,0.2183014380148108
17904.0,0.20723193612143764
17908.0,0.201064859243419
17912.0,0.15918443971226187
17916.0,0.18304902516471164
17920.0,0.11410268438974534
17924.0,0.09956716388633327
17928.0,0.0594114408548181
17932.0,0.03535660836482655
17936.0,0.0010089487722657847
17940.0,0.018605167841408293
17944.0,-0.00010660867317900927
17948.0,-0.008546785649893796
17952.0,-0.010181931856614939
17956.0,-2.2310213925672337e-05
17960.0,-0.005397964577962301
17964.0,-0.017040520499082636
17968.0,0.021947961991217402
17972.0,0.0023336562245019603
17976.0,-0.013533525592474536
17980.0,-0.0019805832344936347
17984.0,0.007353845015567536
17988.0,0.00182411695866915
17992.0,0.005607128997757265
17996.0,-0.003406235137176924
18000.0,0.0015496401892461345
18004.0,-0.008113691583471265
18008.0,-0.005225812380890715
18012.0,-0.013770616946280727
18016.0,-0.00903008949821316
18020.0,-0.05355269545843612
18024.0,-0.09340334513504538
18028.0,-0.13078872991206897
18032.0,-0.1957006211093438
18036.0,-0.019122289366413338
18040.0,0.22095318534345085
18044.0,0.4365081775592855
18048.0,0.669968605382855
18052.0,0.8787782499802524
18056.0,1.1148420496012048
18060.0,0.8736370283282816
18064.0,0.657155614700081
18068.0,0.4292876956336311
18072.0,0.22472520380066813
18076.0,-0.015565724720481207
18080.0,-0.07742256516158934
18084.0,-0.1686092345392765
18088.0,-0.2569571385158831
18092.0,-0.33345874913093915
18096.0,-0.24133333145594676
18100.0,-0.1754135005783123
18104.0,-0.08037019376438743
18108.0,-0.005506667650349228
18112.0,-0.0010496655838861456
18116.0,0.00958205121300138
18120.0,-0.0016855384791476216
18124.0,-0.0009094633523913487
18128.0,-0.0006739606165932073
18132.0,-0.0012355666818983848
18136.0,0.008798761524544462
18140.0,0.0072821948349219455
18144.0,-0.017589920043434158
18148.0,-0.0020011725890740706
18152.0,-0.016625370291586266
18156.0,0.00766567279638859
18160.0,0.0003819005323840042
18164.0,0.013739139566078123
18168.0,-0.00729948847215321
18172.0,-0.00460674463622198
18176.0,0.0028082792922836278
18180.0,0.004683327579066759
18184.0,0.01215386438496106
18188.0,0.005893382538305256
18192.0,0.005304960091354235
18196.0,0.013570592415422201
18200.0,-0.021022370534503593
18204.0,-0.01615726726433587
18208.0,-0.011567168036740278
18212.0,-0.00510206059487303
18216.0,0.002326087922155678
18220.0,0.02708502467193657
18224.0,0.08730224908057652
18228.0,0.12344445451763364
18232.0,0.1408818330522663
18236.0,0.166973668868638
18240.0,0.1956061593789896
18244.0,0.23039855863097028
18248.0,0.24129199574998705
18252.0,0.25054901121197093
18256.0,0.290384125757389
18260.0,0.3119969809922521
18264.0,0.3254729979498682
18268.0,0.3341179208587138
18272.0,0.34105094806976743
18276.0,0.3343628746640611
18280.0,0.34093806182379166
18284.0,0.32266517386294696
18288.0,0.29912975339342573
18292.0,0.3064571693875493
18296.0,0.2833552769356236
18300.0,0.2541262148315935
18304.0,0.22357805688033539
18308.0,0.22885958733385195
18312.0,0.20085666939731728
18316.0,0.15086819485367672
18320.0,0.14279575359815633
18324.0,0.08769489694919885
18328.0,0.06108288338280996
18332.0,0.03011513329443239
18336.0,0.0024273519488913742
18340.0,-0.00701721124065701
18344.0,0.005781122204660121
18348.0,-0.0018497152818200743
18352.0,-0.008383071737955395
18356.0,0.007732970334844452
18360.0,0.008912784459962643
18364.0,0.004658541185745169
18368.0,-0.004458765089343208
18372.0,-0.005333789196625674
18376.0,0.00563434826905061
18380.0,0.005372107459736763
18384.0,0.008170657167128363
18388.0,-0.025695927671278075
18392.0,0.006170450487577497
18396.0,0.0023070041422786247
18400.0,-0.0014586997282476672
18404.0,0.001165990561118047
18408.0,-0.010510479055065303
18412.0,0.00880434387142514
18416.0,0.0
18420.0,0.0
18424.0,0.0
18428.0,0.0
18432.0,0.0
18436.0,0.0
18440.0,0.0
18444.0,0.0
18448.0,0.0
18452.0,0.0
18456.0,0.0
18460.0,0.0
18464.0,0.0
18468.0,0.0
18472.0,0.0
18476.0,0.0
18480.0,0.0
18484.0,0.0
18488.0,0.0
18492.0,0.0
18496.0,0.0
18500.0,0.0
18504.0,0.0
18508.0,0.0
18512.0,0.0
18516.0,0.0
18520.0,0.0
18524.0,0.0
18528.0,0.0
18532.0,0.0
18536.0,0.0
18540.0,0.0
18544.0,0.0
18548.0,0.0
18552.0,0.0
18556.0,0.0
18560.0,0.0
18564.0,0.0
18568.0,0.0
18572.0,0.0
18576.0,0.0
18580.0,0.0
18584.0,0.0
18588.0,0.0
18592.0,0.0
18596.0,0.0
18600.0,0.0
18604.0,0.0
18608.0,0.0
18612.0,0.0
18616.0,0.0
18620.0,0.0
18624.0,0.0
18628.0,0.0
18632.0,0.0
18636.0,0.0
18640.0,0.0
18644.0,0.0
18648.0,0.0
18652.0,0.0
18656.0,0.0
18660.0,0.0
18664.0,0.0
18668.0,0.0
18672.0,0.0
18676.0,0.0
18680.0,0.0
18684.0,0.0
18688.0,0.0
18692.0,0.0
18696.0,0.0
18700.0,0.0
18704.0,0.0
18708.0,0.0
18712.0,0.0
18716.0,0.0
18720.0,0.0
18724.0,0.0
18728.0,0.0
18732.0,0.0
18736.0,0.0
18740.0,0.0
18744.0,0.0
18748.0,0.0
18752.0,0.0
18756.0,0.0
18760.0,0.0
18764.0,0.0
18768.0,0.0
18772.0,0.0
18776.0,0.0
18780.0,0.0
18784.0,0.0
18788.0,0.0
18792.0,0.0
18796.0,0.0
18800.0,0.0
18804.0,0.0
18808.0,0.0
18812.0,0.0
18816.0,0.0
18820.0,0.0
18824.0,0.0
18828.0,0.0
18832.0,0.0
18836.0,0.0
18840.0,0.0
18844.0,0.0
18848.0,0.0
18852.0,0.0
18856.0,0.0
18860.0,0.0
18864.0,0.0
18868.0,0.0
18872.0,0.0
18876.0,0.0
18880.0,0.0
18884.0,0.0
18888.0,0.0
18892.0,0.0
18896.0,0.0
18900.0,0.0
18904.0,0.0
18908.0,0.0
18912.0,0.0
18916.0,0.0
18920.0,0.0
18924.0,0.0
18928.0,0.0
18932.0,0.0
18936.0,0.0
18940.0,0.0
18944.0,0.0
18948.0,0.0
18952.0,0.0
18956.0,0.0
18960.0,0.0
18964.0,0.0
18968.0,0.0
18972.0,0.0
18976.0,0.0
18980.0,0.0
18984.0,0.0
18988.0,0.0
18992.0,0.0
18996.0,0.0
19000.0,0.0
19004.0,0.0
19008.0,0.0
19012.0,0.0
19016.0,0.0
19020.0,0.0
19024.0,0.0
19028.0,0.0
19032.0,0.0
19036.0,0.0
19040.0,0.0
19044.0,0.0
19048.0,0.0
19052.0,0.0
19056.0,0.0
19060.0,0.0
19064.0,0.0
19068.0,0.0
19072.0,0.0
19076.0,0.0
19080.0,0.0
19084.0,0.0
19088.0,0.0
19092.0,0.0
19096.0,0.0
19100.0,0.0
19104.0,0.0
19108.0,0.0
19112.0,0.0
19116.0,0.0
19120.0,0.0
19124.0,0.0
19128.0,0.0
19132.0,0.0
19136.0,0.0
19140.0,0.0
19144.0,0.0
19148.0,-0.011280835953852786
19152.0,-0.0003805801325250261
19156.0,0.0007076093663413138
19160.0,-0.0028962224678926373
19164.0,-0.00559400853493448
19168.0,0.016628327468380322
19172.0,-0.009486460197570165
19176.0,0.0016784873298753046
19180.0,0.008607336289902574
19184.0,0.0034002587575357422
19188.0,0.02255910661978758
19192.0,0.03695334993325869
19196.0,0.058019970629706104
19200.0,0.10165643026201679
19204.0,0.13417857432446292
19208.0,0.16492221096332374
19212.0,0.1895119211994105
19216.0,0.2057214488960737
19220.0,0.19136361252330167
19224.0,0.21483144833638676
19228.0,0.22095048187314148
19232.0,0.21550798940338378
19236.0,0.2075461262896604
19240.0,0.1983137198976634
19244.0,0.18711821949492172
19248.0,0.16685514292442527
19252.0,0.12684900741618502
19256.0,0.09392687568419826
19260.0,0.07305161796536562
19264.0,0.03494163162337768
19268.0,0.014162864222193186
19272.0,-0.00889430066930595
19276.0,0.004148555215492363
19280.0,-0.010391224555144721
19284.0,0.0019824341728974224
19288.0,-0.012478262446799865
19292.0,0.0013678302905319596
19296.0,-0.008564214268800779
19300.0,-0.007834487246614136
19304.0,-0.0001242788545252897
19308.0,0.016588340770184055
19312.0,-0.0017760887296043243
19316.0,-0.0029420316094939726
19320.0,0.001230421542423724
19324.0,0.001144630634383446
19328.0,0.0035768649013470156
19332.0,0.008075244429217601
19336.0,0.0008821675870170879
19340.0,0.0002972737377501224
19344.0,-0.008222817594375006
19348.0,-0.01535060651373314
19352.0,-0.04031892967191718
19356.0,-0.07914765962713391
19360.0,-0.13481192966874225
19364.0,-0.17950864981265668
19368.0,0.004070981391014004
19372.0,0.21832620221077179
19376.0,0.4429904438760427
19380.0,0.667139464699124
19384.0,0.8750485515615426
19388.0,1.0932168354268497
19392.0,0.8530643728584678
19396.0,0.6569025117712902
19400.0,0.4208118626755337
19404.0,0.22765771840744606
19408.0,-0.003884568110796684
19412.0,-0.0712671540144134
19416.0,-0.15112244335490815
19420.0,-0.2588755183437896
19424.0,-0.32899505121392414
19428.0,-0.23126168298977925
19432.0,-0.1562224515627932
19436.0,-0.06845087108653561
19440.0,0.007692608320723267
19444.0,0.009583197838328807
19448.0,-0.0007947966931008701
19452.0,0.0015580886833034457
19456.0,0.005978827866893386
19460.0,0.0062965200673529755
19464.0,0.007285542722658854
19468.0,0.0022393333389985905
19472.0,-0.008964178277140706
19476.0,-0.008727494682734585
19480.0,-0.007120087498116052
19484.0,-0.005817147542421076
19488.0,-0.003443316181258539
19492.0,0.0063610974081053095
19496.0,0.009638031577021379
19500.0,-0.00024794582202126975
19504.0,-0.01036036197180531
19508.0,0.0025023962111092473
19512.0,-0.01248642215290699
19516.0,0.01225679157119167
19520.0,-0.0008853683994906298
19524.0,0.007969946492249008
19528.0,-0.0023442902956885394
19532.0,-0.004045202938424626
19536.0,0.02212865984313309
19540.0,-0.016206309619785864
19544.0,0.009958255456179338
19548.0,-0.015162024398546994
19552.0,0.03256231504585269
19556.0,0.07602024443626207
19560.0,0.09839659410507537
19564.0,0.12160415664235548
19568.0,0.16663191690042523
19572.0,0.18142585489139143
19576.0,0.2189403103409468
19580.0,0.24642705049746236
19584.0,0.25373062652116135
19588.0,0.28307156421040647
19592.0,0.2877426806980338
19596.0,0.30543105393417747
19600.0,0.3268429361911394
19604.0,0.32034819334453907
19608.0,0.32074930856873374
19612.0,0.3365524258568064
19616.0,0.32922565753187144
19620.0,0.33687582551165546
19624.0,0.30019890036117913
19628.0,0.2766167936748969
19632.0,0.26588608392228824
19636.0,0.24486135167966086
19640.0,0.20482246363098744
19644.0,0.1908020561663157
19648.0,0.17898992091486363
19652.0,0.1433468871321873
19656.0,0.09968904853225774
19660.0,0.06894859949900006
19664.0,0.03505382073840616
19668.0,0.004594838948090436
19672.0,-0.007646041483212209
19676.0,0.00608433509129586
19680.0,0.01799045793693162
19684.0,0.0010788729830388092
19688.0,0.007858153025069427
19692.0,0.008960240058861403
19696.0,0.00364725952594385
19700.0,0.0070581394063097
19704.0,0.018743089908501702
19708.0,-0.023662929944312596
19712.0,-0.010403619355841671
19716.0,-0.01785876818295569
19720.0,-0.00130009536228607
19724.0,-0.011574876574006703
19728.0,0.010492619333055838
19732.0,0.010319055239071008
19736.0,-0.006784697635246213
19740.0,0.004532467732775178
19744.0,-0.0161360894964482
19748.0,0.0
19752.0,0.0
19756.0,0.0
19760.0,0.0
19764.0,0.0
19768.0,0.0
19772.0,0.0
19776.0,0.0
19780.0,0.0
19784.0,0.0
19788.0,0.0
19792.0,0.0
19796.0,0.0
19800.0,0.0
19804.0,0.0
19808.0,0.0
19812.0,0.0
19816.0,0.0
19820.0,0.0
19824.0,0.0
19828.0,0.0
19832.0,0.0
19836.0,0.0
19840.0,0.0
19844.0,0.0
19848.0,0.0
19852.0,0.0
19856.0,0.0
19860.0,0.0
19864.0,0.0
19868.0,0.0
19872.0,0.0
19876.0,0.0
19880.0,0.0
19884.0,0.0
19888.0,0.0
19892.0,0.0
19896.0,0.0
19900.0,0.0
19904.0,0.0
19908.0,0.0
19912.0,0.0
19916.0,0.0
19920.0,0.0
19924.0,0.0
19928.0,0.0
19932.0,0.0
19936.0,0.0
19940.0,0.0
19944.0,0.0
19948.0,0.0
19952.0,0.0
19956.0,0.0
19960.0,0.0
19964.0,0.0
19968.0,0.0
19972.0,0.0
19976.0,0.0
19980.0,0.0
19984.0,0.0
19988.0,0.0
19992.0,0.0
19996.0,0.0
20000.0,0.0
20004.0,0.0
20008.0,0.0
20012.0,0.0
20016.0,0.0
20020.0,0.0
20024.0,0.0
20028.0,0.0
20032.0,0.0
20036.0,0.0
20040.0,0.0
20044.0,0.0
20048.0,0.0
20052.0,0.0
20056.0,0.0
20060.0,0.0
20064.0,0.0
20068.0,0.0
20072.0,0.0
20076.0,0.0
20080.0,0.0
20084.0,0.0
20088.0,0.0
20092.0,0.0
20096.0,0.0
20100.0,0.0
20104.0,0.0
20108.0,0.0
20112.0,0.0
20116.0,0.0
20120.0,0.0
20124.0,0.0
20128.0,0.0
20132.0,0.0
20136.0,0.0
20140.0,0.0
20144.0,0.0
20148.0,0.0
20152.0,0.0
20156.0,0.0
20160.0,0.0
20164.0,0.0
20168.0,0.0
20172.0,0.0
20176.0,0.0
20180.0,0.0
20184.0,0.0
20188.0,0.0
20192.0,0.0
20196.0,0.0
20200.0,0.0
20204.0,0.0
20208.0,0.0
20212.0,0.0
20216.0,0.0
20220.0,0.0
20224.0,0.0
20228.0,0.0
20232.0,0.0
20236.0,0.0
20240.0,0.0
20244.0,0.0
20248.0,0.0
20252.0,0.0
20256.0,0.0
20260.0,0.0
20264.0,0.0
20268.0,0.0
20272.0,0.0
20276.0,0.0
20280.0,0.0
20284.0,0.0
20288.0,0.0
20292.0,0.0
20296.0,0.0
20300.0,0.0
20304.0,0.0
20308.0,0.0
20312.0,0.0
20316.0,0.0
20320.0,0.0
20324.0,0.0
20328.0,0.0
20332.0,0.0
20336.0,0.0
20340.0,0.0
20344.0,0.0
20348.0,0.0
20352.0,0.0
20356.0,0.0
20360.0,0.0
20364.0,0.0
20368.0,0.0
20372.0,0.0
20376.0,0.0
20380.0,0.0
20384.0,0.0
20388.0,0.0
20392.0,0.0
20396.0,0.0
20400.0,0.0
20404.0,0.0
20408.0,0.0
20412.0,0.0
20416.0,0.0
20420.0,0.0
20424.0,0.0
20428.0,0.0
20432.0,0.0
20436.0,0.0
20440.0,0.0
20444.0,0.0
20448.0,0.0
20452.0,0.0
20456.0,0.0
20460.0,0.0
20464.0,0.0
20468.0,0.0
20472.0,0.0
20476.0,0.0
20480.0,0.011018454731449696
20484.0,-0.0024727266290177265
20488.0,0.0036038710978970752
20492.0,-0.006291126395040191
20496.0,0.009883935071972955
20500.0,-0.005391211682525773
20504.0,0.015661771090548008
20508.0,0.001056195609886677
20512.0,0.005109816561953151
20516.0,-0.008986397749899148
20520.0,0.0019506345248717816
20524.0,0.032461007765258905
20528.0,0.08229504599749997
20532.0,0.1023468359526646
20536.0,0.14532868878555483
20540.0,0.15520333339482015
20544.0,0.17829514973074076
20548.0,0.18586424060069745
20552.0,0.19527785841392353
20556.0,0.23188206744878795
20560.0,0.23020513027769224
20564.0,0.21064942385288607
20568.0,0.1997354380694839
20572.0,0.1908056841298976
20576.0,0.16750414446692302
20580.0,0.14931047516083823
20584.0,0.13132003411633095
20588.0,0.0783914887799025
20592.0,0.08340836625849464
20596.0,0.027167576381294353
20600.0,-0.004069024449862914
20604.0,0.006666121253535827
20608.0,-0.002635026257149755
20612.0,-0.013619665197808842
20616.0,0.002801466485241367
20620.0,-0.009607272213079516
20624.0,-0.005367643532942017
20628.0,-0.012168039706815714
20632.0,-0.002717085883494428
20636.0,0.0014376965304183917
20640.0,0.009139055802209734
20644.0,0.011744213510332129
20648.0,-0.02188149633275257
20652.0,0.0012756471865745256
20656.0,0.017592836204645825
20660.0,-0.00046167102475978757
20664.0,0.008741605161658917
20668.0,-0.000873434934020063
20672.0,-0.001693747308024633
20676.0,-0.008503372887706985
20680.0,0.017601989924470495
20684.0,-0.047377194512380434
20688.0,-0.08169308006718394
20692.0,-0.12956060130118435
20696.0,-0.15416426525672705
20700.0,-0.014974364953207924
20704.0,0.21969043808062663
20708.0,0.4535656215113393
20712.0,0.667849878925122
20716.0,0.8792882403176456
20720.0,1.1096549169550478
20724.0,0.8772362791179926
20728.0,0.6677024953272067
20732.0,0.43099965701901066
20736.0,0.21528019388943606
20740.0,0.0001416704968167225
20744.0,-0.09053564157571928
20748.0,-0.16857471631311657
20752.0,-0.257994053793147
20756.0,-0.32571721013069
20760.0,-0.25537070351354213
20764.0,-0.16521884498762537
20768.0,-0.07977572908151767
20772.0,-0.018116321904496503
20776.0,-0.006695502024882132
20780.0,-0.0003654741036140507
20784.0,0.002672780748944745
20788.0,0.00019852919293484217
20792.0,0.009386836349766262
20796.0,0.01980769134812938
20800.0,-0.003273888589563155
20804.0,-0.0063032392869829855
20808.0,-0.0015585811422734479
20812.0,-0.010390822180413468
20816.0,-0.006450393539945344
20820.0,-0.010884524672762226
20824.0,-0.013712638177540662
20828.0,0.017001727572543066
20832.0,0.014353133974947571
20836.0,0.010128077126441383
20840.0,-0.01115104433938156
20844.0,0.0008924695742729124
20848.0,0.01358523619942338
20852.0,0.020033103329553804
20856.0,-0.011421881029072632
20860.0,-0.00023763845844255397
20864.0,0.008587039951533195
20868.0,0.0017192133413081894
20872.0,0.016168086429402304
20876.0,-0.0027054958415530976
20880.0,-0.011148019232649901
20884.0,0.03792827262136318
20888.0,0.07041958906821495
20892.0,0.10979265527671904
20896.0,0.12646765255756207
20900.0,0.15550098571367024
20904.0,0.19992943449910225
20908.0,0.22366752343149462
20912.0,0.241567957710222
20916.0,0.25995393210574
20920.0,0.27652702392055084
20924.0,0.29440458109643275
20928.0,0.2893690343985797
20932.0,0.32330575158923636
20936.0,0.33543270136895076
20940.0,0.3173783883929537
20944.0,0.32273957439096596
20948.0,0.32061512467268444
20952.0,0.31965079565227467
20956.0,0.30959133432431596
20960.0,0.2721780954056814
20964.0,0.2776513683693425
20968.0,0.23946686371905943
20972.0,0.23401097174544458
20976.0,0.20079074412685505
20980.0,0.15464399971085732
20984.0,0.14319096583326368
20988.0,0.11386674657452332
20992.0,0.0829816202640914
20996.0,0.030529631585219704
21000.0,-0.00027764796129750216
21004.0,0.025229579033046422
21008.0,-0.007193467937523687
21012.0,0.008821579879248363
21016.0,0.004076385620259343
21020.0,-0.026962808824951962
21024.0,0.011545317196584737
21028.0,-0.013176461055862043
21032.0,0.004801932099997825
21036.0,-0.013351131640074827
21040.0,0.0045955641495149
21044.0,-0.00973937749051314
21048.0,0.011755703678482466
21052.0,-0.014955787208057082
21056.0,0.0020975850792940174
21060.0,-0.010826677917950585
21064.0,0.008877316619251209
21068.0,-0.016112748938209277
21072.0,-0.007775053331842794
21076.0,-0.006089191451229035
21080.0,0.0
21084.0,0.0
21088.0,0.0
21092.0,0.0
21096.0,0.0
21100.0,0.0
21104.0,0.0
21108.0,0.0
21112.0,0.0
21116.0,0.0
21120.0,0.0
21124.0,0.0
21128.0,0.0
21132.0,0.0
21136.0,0.0
21140.0,0.0
21144.0,0.0
21148.0,0.0
21152.0,0.0
21156.0,0.0
21160.0,0.0
21164.0,0.0
21168.0,0.0
21172.0,0.0
21176.0,0.0
21180.0,0.0
21184.0,0.0
21188.0,0.0
21192.0,0.0
21196.0,0.0
21200.0,0.0
21204.0,0.0
21208.0,0.0
21212.0,0.0
21216.0,0.0
21220.0,0.0
21224.0,0.0
21228.0,0.0
21232.0,0.0
21236.0,0.0
21240.0,0.0
21244.0,0.0
21248.0,0.0
21252.0,0.0
21256.0,0.0
21260.0,0.0
21264.0,0.0
21268.0,0.0
21272.0,0.0
21276.0,0.0
21280.0,0.0
21284.0,0.0
21288.0,0.0
21292.0,0.0
21296.0,0.0
21300.0,0.0
21304.0,0.0
21308.0,0.0
21312.0,0.0
21316.0,0.0
21320.0,0.0
21324.0,0.0
21328.0,0.0
21332.0,0.0
21336.0,0.0
21340.0,0.0
21344.0,0.0
21348.0,0.0
21352.0,0.0
21356.0,0.0
21360.0,0.0
21364.0,0.0
21368.0,0.0
21372.0,0.0
21376.0,0.0
21380.0,0.0
21384.0,0.0
21388.0,0.0
21392.0,0.0
21396.0,0.0
21400.0,0.0
21404.0,0.0
21408.0,0.0
21412.0,0.0
21416.0,0.0
21420.0,0.0
21424.0,0.0
21428.0,0.0
21432.0,0.0
21436.0,0.0
21440.0,0.0
21444.0,0.0
21448.0,0.0
21452.0,0.0
21456.0,0.0
21460.0,0.0
21464.0,0.0
21468.0,0.0
21472.0,0.0
21476.0,0.0
21480.0,0.0
21484.0,0.0
21488.0,0.0
21492.0,0.0
21496.0,0.0
21500.0,0.0
21504.0,0.0
21508.0,0.0
21512.0,0.0
21516.0,0.0
21520.0,0.0
21524.0,0.0
21528.0,0.0
21532.0,0.0
21536.0,0.0
21540.0,0.0
21544.0,0.0
21548.0,0.0
21552.0,0.0
21556.0,0.0
21560.0,0.0
21564.0,0.0
21568.0,0.0
21572.0,0.0
21576.0,0.0
21580.0,0.0
21584.0,0.0
21588.0,0.0
21592.0,0.0
21596.0,0.0
21600.0,0.0
21604.0,0.0
21608.0,0.0
21612.0,0.0
21616.0,0.0
21620.0,0.0
21624.0,0.0
21628.0,0.0
21632.0,0.0
21636.0,0.0
21640.0,0.0
21644.0,0.0
21648.0,0.0
21652.0,0.0
21656.0,0.0
21660.0,0.0
21664.0,0.0
21668.0,0.0
21672.0,0.0
21676.0,0.0
21680.0,0.0
21684.0,0.0
21688.0,0.0
21692.0,0.0
21696.0,0.0
21700.0,0.0
21704.0,0.0
21708.0,0.0
21712.0,0.0
21716.0,0.0
21720.0,0.0
21724.0,0.0
21728.0,0.0
21732.0,0.0
21736.0,0.0
21740.0,0.0
21744.0,0.0
21748.0,0.0
21752.0,0.0
21756.0,0.0
21760.0,0.0
21764.0,0.0
21768.0,0.0
21772.0,0.0
21776.0,0.0
21780.0,0.0
21784.0,0.0
21788.0,0.0
21792.0,0.0
21796.0,0.0
21800.0,0.0
21804.0,0.0
21808.0,0.0
21812.0,0.006324261412513861
21816.0,0.006827586545668536
21820.0,0.003442132040248319
21824.0,0.004818702804112396
21828.0,-0.007923083657790205
21832.0,-0.004294212587373212
21836.0,0.00710589753706202
21840.0,-0.015088044939548958
21844.0,-0.013242734710656033
21848.0,0.009757911600230826
21852.0,-1.3762786209331547e-05
21856.0,0.02336730854590987
21860.0,0.06732880417160889
21864.0,0.09933473786455968
21868.0,0.12404961190245467
21872.0,0.14861584183391072
21876.0,0.1789815574022616
21880.0,0.20725149499695641
21884.0,0.20704017631877278
21888.0,0.22614603373297845
21892.0,0.2229669225136185
21896.0,0.2126505156603159
21900.0,0.20483405238362376
21904.0,0.1868907090839846
21908.0,0.1799002929656241
21912.0,0.1369296352858747
21916.0,0.1281609619657563
21920.0,0.08782382344584522
21924.0,0.047003403163746016
21928.0,0.056423588248196634
21932.0,0.004558227211346719
21936.0,0.008963072461146818
21940.0,-0.0076628286981521455
21944.0,0.01250580556226982
21948.0,0.011416886190828082
21952.0,0.003525454706690768
21956.0,-0.00519951336185775
21960.0,0.004416987346023644
21964.0,0.00048647444964848195
21968.0,-0.015358230648789677
21972.0,-0.017820592441150584
21976.0,-0.009105197683522158
21980.0,-0.004082073695821587
21984.0,-0.000599401071589327
21988.0,-0.006682300134641502
21992.0,0.006186046128777557
21996.0,-7.667833319025613e-06
22000.0,-0.00605392876832406
22004.0,-0.012665562530326455
22008.0,-0.014803666713939312
22012.0,0.0050671939104914914
22016.0,-0.04393615915659068
22020.0,-0.09048754588422506
22024.0,-0.12183326143449787
22028.0,-0.15753746293432186
22032.0,-0.015144386633213675
22036.0,0.23330238543854434
22040.0,0.4422599094233028
22044.0,0.6670280171389202
22048.0,0.8756584580428728
22052.0,1.0981753147287703
22056.0,0.886016552491109
22060.0,0.6795596258879039
22064.0,0.4440351986908525
22068.0,0.228500682649397
22072.0,0.0092216652734681
22076.0,-0.08146242603108973
22080.0,-0.15766475201758087
22084.0,-0.25621863624224916
22088.0,-0.32000433303191617
22092.0,-0.2521319087015496
22096.0,-0.16752535615968187
22100.0,-0.06803272459678605
22104.0,-0.0051576891683321495
22108.0,0.004998426990375997
22112.0,-0.015235337228611262
22116.0,-0.005135246831541608
22120.0,-0.005161457360263494
22124.0,-0.01313078756651218
22128.0,-0.0014198722213924328
22132.0,0.0033448988355403476
22136.0,0.0009631056814447748
22140.0,-0.010748308802430096
22144.0,-0.00261367985061212
22148.0,-0.0004113260188436843
22152.0,-0.0018095992579495166
22156.0,-0.002167619635395704
22160.0,-0.019135533937819
22164.0,-0.019720999267721497
22168.0,-0.015289186525829846
22172.0,-0.011874569851721625
22176.0,0.0030693998367939544
22180.0,0.00454348725812378
22184.0,0.003593033844527961
22188.0,-0.01869055809657917
22192.0,0.00479289667641246
22196.0,-0.024658761231224423
22200.0,-0.012984897235722746
22204.0,0.0028995504410426567
22208.0,-0.010329889905393238
22212.0,0.005658759797014689
22216.0,0.03788068685359531
22220.0,0.07732235508410341
22224.0,0.09306778189072867
22228.0,0.14061282968711375
22232.0,0.16665065057778042
22236.0,0.22666594495238704
22240.0,0.21211134153023503
22244.0,0.2518579975188629
22248.0,0.2797410339053302
22252.0,0.2762993052729353
22256.0,0.3008568719926055
22260.0,0.3125912812645284
22264.0,0.33585919161883304
22268.0,0.3408263851215003
22272.0,0.3387436139874256
22276.0,0.33427042050181743
22280.0,0.32720524576860155
22284.0,0.31028496635637587
22288.0,0.30866348852131475
22292.0,0.2958376016737703
22296.0,0.2678824291958772
22300.0,0.25379007732523573
22304.0,0.22581233581926044
22308.0,0.19833145311528072
22312.0,0.1541918323757982
22316.0,0.13844790999089365
22320.0,0.0986338435739828
22324.0,0.07913713533786179
22328.0,0.03137174610597414
22332.0,-0.004516459108420945
22336.0,0.009257874279917718
22340.0,0.001442248436303124
22344.0,0.009632864207985042
22348.0,-0.0047451799705486635
22352.0,-0.0016592312616067334
22356.0,0.02862959203015445
22360.0,-0.0004631351920332255
22364.0,-0.018494946134096607
22368.0,0.012258963803612175
22372.0,-0.0038958237091453614
22376.0,-0.011752668433370663
22380.0,-0.0059798124171045524
22384.0,0.01382957468154715
22388.0,-0.024618153956989436
22392.0,-0.0013691140760212393
22396.0,0.008867378971249165
22400.0,-0.011945737755518424
22404.0,-0.010643240642400421
22408.0,0.006069333383670929
22412.0,0.0
22416.0,0.0
22420.0,0.0
22424.0,0.0
22428.0,0.0
22432.0,0.0
22436.0,0.0
22440.0,0.0
22444.0,0.0
22448.0,0.0
22452.0,0.0
22456.0,0.0
22460.0,0.0
22464.0,0.0
22468.0,0.0
22472.0,0.0
22476.0,0.0
22480.0,0.0
22484.0,0.0
22488.0,0.0
22492.0,0.0
22496.0,0.0
22500.0,0.0
22504.0,0.0
22508.0,0.0
22512.0,0.0
22516.0,0.0
22520.0,0.0
22524.0,0.0
22528.0,0.0
22532.0,0.0
22536.0,0.0
22540.0,0.0
22544.0,0.0
22548.0,0.0
22552.0,0.0
22556.0,0.0
22560.0,0.0
22564.0,0.0
22568.0,0.0
22572.0,0.0
22576.0,0.0
22580.0,0.0
22584.0,0.0
22588.0,0.0
22592.0,0.0
22596.0,0.0
22600.0,0.0
22604.0,0.0
22608.0,0.0
22612.0,0.0
22616.0,0.0
22620.0,0.0
22624.0,0.0
22628.0,0.0
22632.0,0.0
22636.0,0.0
22640.0,0.0
22644.0,0.0
22648.0,0.0
22652.0,0.0
22656.0,0.0
22660.0,0.0
22664.0,0.0
22668.0,0.0
22672.0,0.0
22676.0,0.0
22680.0,0.0
22684.0,0.0
22688.0,0.0
22692.0,0.0
22696.0,0.0
22700.0,0.0
22704.0,0.0
22708.0,0.0
22712.0,0.0
22716.0,0.0
22720.0,0.0
22724.0,0.0
22728.0,0.0
22732.0,0.0
22736.0,0.0
22740.0,0.0
22744.0,0.0
22748.0,0.0
22752.0,0.0
22756.0,0.0
22760.0,0.0
22764.0,0.0
22768.0,0.0
22772.0,0.0
22776.0,0.0
22780.0,0.0
22784.0,0.0
22788.0,0.0
22792.0,0.0
22796.0,0.0
22800.0,0.0
22804.0,0.0
22808.0,0.0
22812.0,0.0
22816.0,0.0
22820.0,0.0
22824.0,0.0
22828.0,0.0
22832.0,0.0
22836.0,0.0
22840.0,0.0
22844.0,0.0
22848.0,0.0
22852.0,0.0
22856.0,0.0
22860.0,0.0
22864.0,0.0
22868.0,0.0
22872.0,0.0
22876.0,0.0
22880.0,0.0
22884.0,0.0
22888.0,0.0
22892.0,0.0
22896.0,0.0
22900.0,0.0
22904.0,0.0
22908.0,0.0
22912.0,0.0
22916.0,0.0
22920.0,0.0
22924.0,0.0
22928.0,0.0
22932.0,0.0
22936.0,0.0
22940.0,0.0
22944.0,0.0
22948.0,0.0
22952.0,0.0
22956.0,0.0
22960.0,0.0
22964.0,0.0
22968.0,0.0
22972.0,0.0
22976.0,0.0
22980.0,0.0
22984.0,0.0
22988.0,0.0
22992.0,0.0
22996.0,0.0
23000.0,0.0
23004.0,0.0
23008.0,0.0
23012.0,0.0
23016.0,0.0
23020.0,0.0
23024.0,0.0
23028.0,0.0
23032.0,0.0
23036.0,0.0
23040.0,0.0
23044.0,0.0
23048.0,0.0
23052.0,0.0
23056.0,0.0
23060.0,0.0
23064.0,0.0
23068.0,0.0
23072.0,0.0
23076.0,0.0
23080.0,0.0
23084.0,0.0
23088.0,0.0
23092.0,0.0
23096.0,0.0
23100.0,0.0
23104.0,0.0
23108.0,0.0
23112.0,0.0
23116.0,0.0
23120.0,0.0
23124.0,0.0
23128.0,0.0
23132.0,0.0
23136.0,0.0
23140.0,0.0
23144.0,0.01172641596982846
23148.0,0.015395038234222032
23152.0,-0.014472963316065275
23156.0,0.016133918861999642
23160.0,0.00694584196365041
23164.0,0.010333382709711923
23168.0,-0.007739148878762845
23172.0,4.537085983157399e-05
23176.0,0.017219867722370368
23180.0,0.0033017849207612783
23184.0,-0.007696157724992103
23188.0,0.027583761065645966
23192.0,0.08247861146005153
23196.0,0.11242033576666793
23200.0,0.1319103570706835
23204.0,0.1767112972789583
23208.0,0.18685589265587255
23212.0,0.1883563650430516
23216.0,0.18379866243133572
23220.0,0.22332264854202566
23224.0,0.22162905641212796
23228.0,0.21028389328227673
23232.0,0.20335844338011175
23236.0,0.19039063746020546
23240.0,0.2035174233820164
23244.0,0.14789322403215874
23248.0,0.12759114006183603
23252.0,0.11783738379962079
23256.0,0.08728560718484257
23260.0,0.018100082618130165
23264.0,-0.004971412772187226
23268.0,0.007059804863483491
23272.0,0.01731207057548908
23276.0,-0.009728218838998529
23280.0,0.0025141184599064303
23284.0,-0.00753390859941975
23288.0,-0.004670619307789223
23292.0,0.012408106847426171
23296.0,-0.0027441435737911067
23300.0,-0.00027421550634746744
23304.0,-0.012835187004173618
23308.0,-0.001833020546060034
23312.0,0.00935015904448175
23316.0,0.00536729016647389
23320.0,0.007132595297514988
23324.0,-0.02244337796657774
23328.0,0.0035316863041709706
23332.0,-0.006139788235477383
23336.0,-0.013274352625998201
23340.0,0.007084207067846999
23344.0,-0.002972583724855878
23348.0,-0.03568927018431777
23352.0,-0.07924041154817928
23356.0,-0.14019324285281848
23360.0,-0.16571688303465587
23364.0,-0.0005051484068964012
23368.0,0.21034723971327485
23372.0,0.44625074319368213
23376.0,0.6700543568212297
23380.0,0.8897110380958625
23384.0,1.1025285668397418
23388.0,0.8713816491120386
23392.0,0.6484167884295855
23396.0,0.4530973315743332
23400.0,0.20187150843251078
23404.0,-0.007026561577069851
23408.0,-0.09481869775313477
23412.0,-0.17090252750455456
23416.0,-0.2551976362399883
23420.0,-0.33161279896839396
23424.0,-0.2435138480427119
23428.0,-0.16999800693600162
23432.0,-0.09044399526985637
23436.0,-0.004008576884590526
23440.0,-0.001014160899808243
23444.0,-0.002781838441563334
23448.0,0.013354902622217491
23452.0,0.007466865246130623
23456.0,-0.02187954700210147
23460.0,0.002580270553314159
23464.0,-0.007146323559371264
23468.0,-0.0018853245642493572
23472.0,0.005654990244039302
23476.0,0.019980646940540605
23480.0,0.003843419090607143
23484.0,0.020895699462765042
23488.0,0.0025305426437721274
23492.0,0.0029830604262164545
23496.0,0.004799512513763201
23500.0,0.002861236637616986
23504.0,-0.0025125967349919624
23508.0,0.0039488234848542745
23512.0,-0.002621804410562742
23516.0,0.0017342421222154248
23520.0,-0.01493836010228054
23524.0,0.0035991410479366856
23528.0,0.005275137727680803
23532.0,-0.003055747400573782
23536.0,-0.019938962777319946
23540.0,-0.004256930553544793
23544.0,-0.007138770188971197
23548.0,0.041464451087308105
23552.0,0.08306116224642039
23556.0,0.08739187132584927
23560.0,0.1341710732968657
23564.0,0.15719139202815086
23568.0,0.1975912338564345
23572.0,0.21969163774002032
23576.0,0.23791213140047793
23580.0,0.26106664758073955
23584.0,0.2837888234409429
23588.0,0.3028694568738073
23592.0,0.31237800067197996
23596.0,0.31248555646115195
23600.0,0.32249259170813316
23604.0,0.3398698920278513
23608.0,0.31608798060511745
23612.0,0.3254001684861896
23616.0,0.3268304479745241
23620.0,0.2942879712091735
23624.0,0.2725977499490546
23628.0,0.27171831890415715
23632.0,0.24210373497711782
23636.0,0.2096814660867534
23640.0,0.2020453303245328
23644.0,0.16451668756099763
23648.0,0.12263714000921913
23652.0,0.09034912341039038
23656.0,0.07718933784222068
23660.0,0.03618096539979607
23664.0,0.01211913787227558
23668.0,-0.0007213272129144181
23672.0,-0.000975545811672578
23676.0,-0.005056596189233832
23680.0,-0.013754244529460372
23684.0,-0.004197413588594206
23688.0,0.00949240871815199
23692.0,0.007451263140033077
23696.0,0.01503939307830466
23700.0,-0.010884455451524179
23704.0,0.0008732890717995907
23708.0,-0.006039085583644287
23712.0,-0.010043433158110467
23716.0,-0.021679551601344726
23720.0,-0.02407082128776033
23724.0,0.002308938415620655
23728.0,-0.0018237791841111096
23732.0,0.009397122681019021
23736.0,-0.004316844079337013
23740.0,0.017941781310012
23744.0,0.0
23748.0,0.0
23752.0,0.0
23756.0,0.0
23760.0,0.0
23764.0,0.0
23768.0,0.0
23772.0,0.0
23776.0,0.0
23780.0,0.0
23784.0,0.0
23788.0,0.0
23792.0,0.0
23796.0,0.0
23800.0,0.0
23804.0,0.0
23808.0,0.0
23812.0,0.0
23816.0,0.0
23820.0,0.0
23824.0,0.0
23828.0,0.0
23832.0,0.0
23836.0,0.0
23840.0,0.0
23844.0,0.0
23848.0,0.0
23852.0,0.0
23856.0,0.0
23860.0,0.0
23864.0,0.0
23868.0,0.0
23872.0,0.0
23876.0,0.0
23880.0,0.0
23884.0,0.0
23888.0,0.0
23892.0,0.0
23896.0,0.0
23900.0,0.0
23904.0,0.0
23908.0,0.0
23912.0,0.0
23916.0,0.0
23920.0,0.0
23924.0,0.0
23928.0,0.0
23932.0,0.0
23936.0,0.0
23940.0,0.0
23944.0,0.0
23948.0,0.0
23952.0,0.0
23956.0,0.0
23960.0,0.0
23964.0,0.0
23968.0,0.0
23972.0,0.0
23976.0,0.0
23980.0,0.0
23984.0,0.0
23988.0,0.0
23992.0,0.0
23996.0,0.0
24000.0,0.0
24004.0,0.0
24008.0,0.0
24012.0,0.0
24016.0,0.0
24020.0,0.0
24024.0,0.0
24028.0,0.0
24032.0,0.0
24036.0,0.0
24040.0,0.0
24044.0,0.0
24048.0,0.0
24052.0,0.0
24056.0,0.0
24060.0,0.0
24064.0,0.0
24068.0,0.0
24072.0,0.0
24076.0,0.0
24080.0,0.0
24084.0,0.0
24088.0,0.0
24092.0,0.0
24096.0,0.0
24100.0,0.0
24104.0,0.0
24108.0,0.0
24112.0,0.0
24116.0,0.0
24120.0,0.0
24124.0,0.0
24128.0,0.0
24132.0,0.0
24136.0,0.0
24140.0,0.0
24144.0,0.0
24148.0,0.0
24152.0,0.0
24156.0,0.0
24160.0,0.0
24164.0,0.0
24168.0,0.0
24172.0,0.0
24176.0,0.0
24180.0,0.0
24184.0,0.0
24188.0,0.0
24192.0,0.0
24196.0,0.0
24200.0,0.0
24204.0,0.0
24208.0,0.0
24212.0,0.0
24216.0,0.0
24220.0,0.0
24224.0,0.0
24228.0,0.0
24232.0,0.0
24236.0,0.0
24240.0,0.0
24244.0,0.0
24248.0,0.0
24252.0,0.0
24256.0,0.0
24260.0,0.0
24264.0,0.0
24268.0,0.0
24272.0,0.0
24276.0,0.0
24280.0,0.0
24284.0,0.0
24288.0,0.0
24292.0,0.0
24296.0,0.0
24300.0,0.0
24304.0,0.0
24308.0,0.0
24312.0,0.0
24316.0,0.0
24320.0,0.0
24324.0,0.0
24328.0,0.0
24332.0,0.0
24336.0,0.0
24340.0,0.0
24344.0,0.0
24348.0,0.0
24352.0,0.0
24356.0,0.0
24360.0,0.0
24364.0,0.0
24368.0,0.0
24372.0,0.0
24376.0,0.0
24380.0,0.0
24384.0,0.0
24388.0,0.0
24392.0,0.0
24396.0,0.0
24400.0,0.0
24404.0,0.0
24408.0,0.0
24412.0,0.0
24416.0,0.0
24420.0,0.0
24424.0,0.0
24428.0,0.0
24432.0,0.0
24436.0,0.0
24440.0,0.0
24444.0,0.0
24448.0,0.0
24452.0,0.0
24456.0,0.0
24460.0,0.0
24464.0,0.0
24468.0,0.0
24472.0,0.0
24476.0,0.003479975245696442
24480.0,0.00347772146550485
24484.0,0.00872901281167898
24488.0,0.014453009869000864
24492.0,-0.013491872736586294
24496.0,-0.001425062576145638
24500.0,0.002153627951896339
24504.0,-0.0021244562576103465
24508.0,0.008824078711316567
24512.0,0.0015760288568556528
24516.0,0.02352292096462704
24520.0,0.02466176474358931
24524.0,0.04951499397712588
24528.0,0.10055491487310518
24532.0,0.13387921530813338
24536.0,0.16443889460738279
24540.0,0.17949155121831173
24544.0,0.20858976888305172
24548.0,0.22607391809495858
24552.0,0.2164183229289618
24556.0,0.2289512761545159
24560.0,0.23007909461913675
24564.0,0.19275846598670154
24568.0,0.1837672119407345
24572.0,0.1680860619310626
24576.0,0.16569655047609377
24580.0,0.11449497227526419
24584.0,0.10241902866288928
24588.0,0.05899605860896433
24592.0,0.04154330325029411
24596.0,-0.008200570365513464
24600.0,-0.00823199750843897
24604.0,0.012264990531270033
24608.0,-0.013726552292670098
24612.0,0.005546015726167502
24616.0,0.0062398626087363
24620.0,0.007211892925160436
24624.0,0.00423328590870995
24628.0,-0.00960493230351843
24632.0,-0.015515267789634357
24636.0,-0.004791345068642868
24640.0,0.009770227343181111
24644.0,-0.014224183052614792
24648.0,-0.005382517288249565
24652.0,0.003931298771555808
24656.0,-0.009149526672148961
24660.0,-0.005503605592298665
24664.0,0.004709853585428623
24668.0,-0.019473099960126885
24672.0,0.00901434911362904
24676.0,0.00473821814525839
24680.0,-0.04808872533011473
24684.0,-0.08356912669898595
24688.0,-0.1546490023569781
24692.0,-0.16151645179974272
24696.0,-0.0004174760534342927
24700.0,0.2139360822606486
24704.0,0.43440013704692576
24708.0,0.6719676712094642
24712.0,0.8790780026864494
24716.0,1.1213685197399483
24720.0,0.8887665506284035
24724.0,0.6428165717087898
24728.0,0.41912627394627605
24732.0,0.21258580998429594
24736.0,-0.004896438629529244
24740.0,-0.07375200693810827
24744.0,-0.18535907008099684
24748.0,-0.24958315126452357
24752.0,-0.3039739673540236
24756.0,-0.2549313368254704
24760.0,-0.16479306754331052
24764.0,-0.07538756350853243
24768.0,0.007035125688710282
24772.0,0.0009071434487946031
24776.0,0.011800117976643662
24780.0,0.008662238402887684
24784.0,0.006582375295519578
24788.0,-0.007616975251511068
24792.0,0.013113571007914132
24796.0,-0.006391588311294161
24800.0,-0.007367047878317334
24804.0,0.02666481140531511
24808.0,-0.0004775291486008832
24812.0,0.0019682723080517413
24816.0,0.004461326576950793
24820.0,0.004641735299160959
24824.0,-0.00313935810046734
24828.0,0.016700180264246047
24832.0,0.004146307989104997
24836.0,-0.0010187464734920388
24840.0,-0.0047669300022487775
24844.0,0.0052502583633957205
24848.0,0.013034994077946938
24852.0,0.011440696303863618
24856.0,0.006272857851158218
24860.0,0.024256371823429514
24864.0,0.0009614620834712061
24868.0,-0.008394789939795026
24872.0,-0.003988199012976543
24876.0,-0.010251419790806212
24880.0,0.03670483322614874
24884.0,0.07186763505823536
24888.0,0.10039324931338584
24892.0,0.14298657722241082
24896.0,0.17011431564769577
24900.0,0.20278836073518358
24904.0,0.2261728378356139
24908.0,0.23843748509631238
24912.0,0.25422657663521825
24916.0,0.31000919821186396
24920.0,0.2982970656487028
24924.0,0.32162440058792024
24928.0,0.31410508395785103
24932.0,0.3244501825145244
24936.0,0.31572481895119076
24940.0,0.3286168756521007
24944.0,0.31783226366878015
24948.0,0.30508148101760113
24952.0,0.3212237566169723
24956.0,0.28989895604315263
24960.0,0.26666862204570474
24964.0,0.2566087410521697
24968.0,0.22507479144528217
24972.0,0.19826951597014986
24976.0,0.16881434443878035
24980.0,0.13876254885192332
24984.0,0.08910012994260726
24988.0,0.04984407318235237
24992.0,0.028893020951284293
24996.0,0.00021843292597973306
25000.0,-0.0061407711248167
25004.0,-0.01733036691617806
25008.0,-0.010968370108298717
25012.0,-0.02201814606750129
25016.0,-0.009122013067156182
25020.0,-0.0040378185801830686
25024.0,-0.009543544838110481
25028.0,-0.003144669848432834
