time,value
0.0,0.0
4.0,0.0
8.0,0.0
12.0,0.0
16.0,0.0
20.0,0.0
24.0,0.0
28.0,0.0
32.0,0.0
36.0,0.0
40.0,0.0
44.0,0.0
48.0,0.0
52.0,0.0
56.0,0.0
60.0,0.0
64.0,0.0
68.0,0.0
72.0,0.0
76.0,0.0
80.0,0.0
84.0,0.0
88.0,0.0
92.0,0.0
96.0,0.0
100.0,0.0
104.0,0.0
108.0,0.0
112.0,0.0
116.0,0.0
120.0,0.0
124.0,0.0
128.0,0.0
132.0,0.0
136.0,0.0
140.0,0.0
144.0,0.0
148.0,0.0
152.0,0.0
156.0,0.0
160.0,0.0
164.0,0.0
168.0,0.0
172.0,0.0
176.0,0.0
180.0,0.0
184.0,0.0
188.0,0.0
192.0,0.0
196.0,0.0
200.0,0.0
204.0,0.0
208.0,0.0
212.0,0.0
216.0,0.0
220.0,0.0
224.0,0.0
228.0,0.0
232.0,0.0
236.0,0.0
240.0,0.0
244.0,0.0
248.0,0.0
252.0,0.0
256.0,0.0
260.0,0.0
264.0,0.0
268.0,0.0
272.0,0.0
276.0,0.0
280.0,0.0
284.0,0.0
288.0,0.0
292.0,0.0
296.0,0.0
300.0,0.0
304.0,0.0
308.0,0.0
312.0,0.0
316.0,0.0
320.0,0.0
324.0,0.0
328.0,0.0
332.0,0.0
336.0,0.0
340.0,0.0
344.0,0.0
348.0,0.0
352.0,0.0
356.0,0.0
360.0,0.0
364.0,0.0
368.0,0.0
372.0,0.0
376.0,0.0
380.0,0.0
384.0,0.0
388.0,0.0
392.0,0.0
396.0,0.0
400.0,0.0
404.0,0.0
408.0,0.0
412.0,0.0
416.0,0.0
420.0,0.0
424.0,0.0
428.0,0.0
432.0,0.0
436.0,0.0
440.0,0.0
444.0,0.0
448.0,0.0
452.0,0.0
456.0,0.0
460.0,0.0
464.0,0.0
468.0,0.0
472.0,0.0
476.0,0.0
480.0,0.0
484.0,0.0
488.0,0.0
492.0,0.0
496.0,0.0
500.0,-0.00586725744836148
504.0,0.0034346895650100556
508.0,-0.002293814430539617
512.0,-0.005172939973905314
516.0,0.02075251769831237
520.0,-0.0037621738950553048
524.0,-1.6474610686219277e-05
528.0,-0.009140275721685104
532.0,-0.0033657344383310845
536.0,-0.00914282763132693
540.0,0.0002141638752320512
544.0,0.01301844034772904
548.0,0.05931244276839995
552.0,0.08920256059655836
556.0,0.11311662506458663
560.0,0.1329461419799278
564.0,0.17430388436093555
568.0,0.17794506404470192
572.0,0.21990690784190423
576.0,0.20638666197087932
580.0,0.2043686070155055
584.0,0.1934222787822869
588.0,0.19793691531855118
592.0,0.1577076393994865
596.0,0.16304588953173244
600.0,0.13985905055061348
604.0,0.13482952316860172
608.0,0.09388352758406307
612.0,0.05701430662012309
616.0,0.032409083438208315
620.0,-0.009007447490767113
624.0,-1.5508072519129405e-05
628.0,0.019938078320860374
632.0,-0.004074765405298855
636.0,-0.005958712898701576
640.0,0.004259895217697458
644.0,0.00414278214973157
648.0,0.0052855461129742145
652.0,-0.009345996255416891
656.0,-0.006071845021560864
660.0,-0.002953837042097691
664.0,0.015172304773994998
668.0,0.0162553572692128
672.0,-0.016558504493852804
676.0,-0.0004015156778931531
680.0,-0.004417498825879031
684.0,-0.006408099576622516
688.0,-0.0015309710379226512
692.0,0.0038884542002310435
696.0,-0.01848048922640831
700.0,0.005531019585240591
704.0,-0.028736885062374685
708.0,-0.09292313493642201
712.0,-0.11361312113484062
716.0,-0.17417212866071102
720.0,-0.00949347381422167
724.0,0.1973248343577674
728.0,0.40796884625540647
732.0,0.5897366922144085
736.0,0.8088515823003145
740.0,0.9944227317357601
744.0,0.8064892976991054
748.0,0.6061755407173457
752.0,0.3932387790711181
756.0,0.19122296749632883
760.0,-0.008501405604189133
764.0,-0.059219637788303865
768.0,-0.13752091631845334
772.0,-0.21464959891708077
776.0,-0.29145473762741203
780.0,-0.22119790786742116
784.0,-0.14372387218988775
788.0,-0.07834844653804837
792.0,0.007170489114315207
796.0,0.015035258995628315
800.0,-0.010633387187236481
804.0,0.006377382017310988
808.0,0.009786187664922218
812.0,-0.0013303058052425288
816.0,0.001413520779593986
820.0,0.19111003973698404
824.0,0.18422202725287348
828.0,0.19692738364116166
832.0,0.20732393771803495
836.0,0.18797663201918413
840.0,0.1996353992192348
844.0,0.19492725173284603
848.0,0.1935699936551687
852.0,0.20917322521322199
856.0,0.2061571928515015
860.0,0.18286223328470452
864.0,0.1997636562964409
868.0,0.19527622044094095
872.0,0.2055058950708237
876.0,0.18026724571876862
880.0,0.19523895680921607
884.0,0.1962721747771185
888.0,0.21163953379176356
892.0,0.196714131200672
896.0,0.19530478541495125
900.0,0.20442908806920437
904.0,0.027929959529546012
908.0,0.06165802451081651
912.0,0.10190345945190513
916.0,0.12524903284745456
920.0,0.15645600942021626
924.0,0.18227274978448696
928.0,0.1976883829494171
932.0,0.2212251075892005
936.0,0.24269490590337447
940.0,0.27086065718443253
944.0,0.2618848559496371
948.0,0.27881608966061666
952.0,0.29291787372076844
956.0,0.28158216154024746
960.0,0.2930140798888157
964.0,0.29016575426545677
968.0,0.2907773186254043
972.0,0.28738533556545787
976.0,0.2804975586427204
980.0,0.2720997449951255
984.0,0.25215831485091383
988.0,0.22750069353262453
992.0,0.22642684069231875
996.0,0.18700344312361367
1000.0,0.15043089284025174
1004.0,0.11817391602552642
1008.0,0.09668406916766875
1012.0,0.0788285498387157
1016.0,0.02355657390163841
1020.0,0.020528366350074267
1024.0,0.0017419611373608462
1028.0,0.013694938951413826
1032.0,-0.005062337099710024
1036.0,0.006431478903578495
1040.0,-0.009624822848736257
1044.0,-0.004697292975400814
1048.0,-0.0031582745955703647
1052.0,0.010814288796441586
1056.0,0.00022527790721655523
1060.0,-0.004236557440940062
1064.0,-0.02040381856246667
1068.0,0.011605630856399856
1072.0,0.003145378018408907
1076.0,0.013310437077485589
1080.0,0.005335898461749847
1084.0,-0.004885147170638118
1088.0,-0.011274263011927242
1092.0,-0.0055913858848155975
1096.0,-0.004342326723005809
1100.0,0.0
1104.0,0.0
1108.0,0.0
1112.0,0.0
1116.0,0.0
1120.0,0.0
1124.0,0.0
1128.0,0.0
1132.0,0.0
1136.0,0.0
1140.0,0.0
1144.0,0.0
1148.0,0.0
1152.0,0.0
1156.0,0.0
1160.0,0.0
1164.0,0.0
1168.0,0.0
1172.0,0.0
1176.0,0.0
1180.0,0.0
1184.0,0.0
1188.0,0.0
1192.0,0.0
1196.0,0.0
1200.0,0.0
1204.0,0.0
1208.0,0.0
1212.0,0.0
1216.0,0.0
1220.0,0.0
1224.0,0.0
1228.0,0.0
1232.0,0.0
1236.0,0.0
1240.0,0.0
1244.0,0.0
1248.0,0.0
1252.0,0.0
1256.0,0.0
1260.0,0.0
1264.0,0.0
1268.0,0.0
1272.0,0.0
1276.0,0.0
1280.0,0.0
1284.0,0.0
1288.0,0.0
1292.0,0.0
1296.0,0.0
1300.0,-0.0043466238844392805
1304.0,-0.0023694771065316794
1308.0,-0.00306356349349615
1312.0,0.0029661679682333217
1316.0,0.0064169604454226295
1320.0,0.00973720809594575
1324.0,-0.01355858887687721
1328.0,0.010718364008868565
1332.0,0.025133062592332202
1336.0,-0.012790757094193236
1340.0,0.006090866463162807
1344.0,0.03266791177864262
1348.0,0.05169646536835231
1352.0,0.09105411448253437
1356.0,0.10280852070238111
1360.0,0.12586205469581244
1364.0,0.16167903932852765
1368.0,0.19469814455825657
1372.0,0.1729574774454211
1376.0,0.21492258432241218
1380.0,0.20940754755442223
1384.0,0.20174406098663117
1388.0,0.20256963067296854
1392.0,0.18882966121824535
1396.0,0.1747163110884651
1400.0,0.1549090994390467
1404.0,0.10830400438043382
1408.0,0.09077754550967776
1412.0,0.07192296065774996
1416.0,0.03638595900593506
1420.0,-0.01063723895823251
1424.0,-0.008781583618490376
1428.0,0.014310773779252519
1432.0,-0.008508662745697414
1436.0,-0.01094463687362957
1440.0,-0.011774360049148017
1444.0,-0.0072673137558601
1448.0,0.0027555716113821065
1452.0,0.008034427583163414
1456.0,0.006446943870551592
1460.0,-0.011277496719532567
1464.0,-0.012014915210625097
1468.0,0.0032821340993200204
1472.0,0.0040367809238189035
1476.0,-0.020485628556299092
1480.0,0.00046025074275320805
1484.0,-0.007401233649212094
1488.0,-0.008107424013514863
1492.0,0.01665337255947034
1496.0,-0.006504923146501175
1500.0,-0.012039747535076696
1504.0,-0.03373289048937498
1508.0,-0.07279089109208156
1512.0,-0.13138965920562656
1516.0,-0.14919718115389854
1520.0,-0.012946327760361863
1524.0,0.19098473535089322
1528.0,0.416280859729301
1532.0,0.6106824311639553
1536.0,0.7823608340287894
1540.0,1.011209023784754
1544.0,0.7933839567621154
1548.0,0.6070505656342589
1552.0,0.3851312315876085
1556.0,0.20663654566203088
1560.0,-0.0071087668485429936
1564.0,-0.07305221385092588
1568.0,-0.14501454865127092
1572.0,-0.21039919109434907
1576.0,-0.322235944415482
1580.0,-0.22545146674308184
1584.0,-0.1286902718016299
1588.0,-0.08218944019512422
1592.0,0.0010002906388716652
1596.0,0.004557116629813041
1600.0,-0.018593550653079587
1604.0,-0.004590349468250199
1608.0,0.0028849540375432757
1612.0,-0.007390074630054275
1616.0,0.007204296826052
1620.0,0.20692637652776352
1624.0,0.18710756187734245
1628.0,0.197238672033226
1632.0,0.2008404142130837
1636.0,0.20136472975553113
1640.0,0.18290812480285581
1644.0,0.22111175122523583
1648.0,0.1903669726345589
1652.0,0.20198118435038287
1656.0,0.199552769299194
1660.0,0.21203569993077592
1664.0,0.2067055549461318
1668.0,0.21220047607384998
1672.0,0.19727266634146132
1676.0,0.1908135128497517
1680.0,0.2199841447487793
1684.0,0.20525632689426584
1688.0,0.18723697706513975
1692.0,0.20459940731193363
1696.0,0.1835883351539449
1700.0,0.21449747945528483
1704.0,0.017767097790858027
1708.0,0.048702391047335016
1712.0,0.08275040169249064
1716.0,0.13674233708645223
1720.0,0.14848084465048791
1724.0,0.1862565833938279
1728.0,0.19607850550618525
1732.0,0.2052665513681521
1736.0,0.24977004329328384
1740.0,0.25407841951817545
1744.0,0.2935279702324486
1748.0,0.28908643647002896
1752.0,0.28149726509911455
1756.0,0.29835112601619584
1760.0,0.28957185876731856
1764.0,0.3051064899170274
1768.0,0.28749371061145573
1772.0,0.2924917078064655
1776.0,0.27354044602026223
1780.0,0.26306334327409925
1784.0,0.2522672554200563
1788.0,0.2284148891231922
1792.0,0.2140928324089649
1796.0,0.18934337802394383
1800.0,0.14981505497882744
1804.0,0.11725871755903854
1808.0,0.09586122050041286
1812.0,0.05386457054347786
1816.0,0.020574773047955963
1820.0,5.287657357304401e-05
1824.0,-0.00021447693574184765
1828.0,0.0031069022722109724
1832.0,-0.008767251717787772
1836.0,0.000738272561772736
1840.0,-0.009037892390134862
1844.0,0.005781458779042395
1848.0,0.004206641585558222
1852.0,0.002774617604946042
1856.0,0.013443712881651698
1860.0,-0.01685363792616406
1864.0,-0.005963715876842848
1868.0,0.01711990381005297
1872.0,-0.018654516286260085
1876.0,-0.002580028307720233
1880.0,-0.006850776958782705
1884.0,0.0043846035610853595
1888.0,0.005250869201128299
1892.0,0.010062573021950072
1896.0,-0.01875313702513571
1900.0,0.0
1904.0,0.0
1908.0,0.0
1912.0,0.0
1916.0,0.0
1920.0,0.0
1924.0,0.0
1928.0,0.0
1932.0,0.0
1936.0,0.0
1940.0,0.0
1944.0,0.0
1948.0,0.0
1952.0,0.0
1956.0,0.0
1960.0,0.0
1964.0,0.0
1968.0,0.0
1972.0,0.0
1976.0,0.0
1980.0,0.0
1984.0,0.0
1988.0,0.0
1992.0,0.0
1996.0,0.0
2000.0,0.0
2004.0,0.0
2008.0,0.0
2012.0,0.0
2016.0,0.0
2020.0,0.0
2024.0,0.0
2028.0,0.0
2032.0,0.0
2036.0,0.0
2040.0,0.0
2044.0,0.0
2048.0,0.0
2052.0,0.0
2056.0,0.0
2060.0,0.0
2064.0,0.0
2068.0,0.0
2072.0,0.0
2076.0,0.0
2080.0,0.0
2084.0,0.0
2088.0,0.0
2092.0,0.0
2096.0,0.0
2100.0,0.023291497282251862
2104.0,-0.007061494263787707
2108.0,-0.0013119328322600565
2112.0,-0.011138566913107295
2116.0,0.01373009612878357
2120.0,0.015032552988102533
2124.0,0.0038527631760416066
2128.0,-0.005117056539964681
2132.0,0.015617432525194142
2136.0,-0.0018149409332886696
2140.0,-0.016525771767236436
2144.0,0.013446801264721135
2148.0,0.07494096977922018
2152.0,0.09440044281193734
2156.0,0.11181441082947212
2160.0,0.15055647425665006
2164.0,0.162761543668904
2168.0,0.1849710082305798
2172.0,0.1786453651041712
2176.0,0.19118888857963878
2180.0,0.1887721955241362
2184.0,0.21102031528887513
2188.0,0.18328489094087608
2192.0,0.1851982776260108
2196.0,0.14713701308437918
2200.0,0.1318696633396913
2204.0,0.11468198235528004
2208.0,0.08577167418534758
2212.0,0.06263063462945415
2216.0,0.029772543121805224
2220.0,-0.008677385344538754
2224.0,0.001661732930762665
2228.0,-0.00855588535541944
2232.0,-0.004929728540150344
2236.0,-0.005286203194043841
2240.0,-0.015051421984852906
2244.0,-0.0011667582175941158
2248.0,0.012488345110553639
2252.0,0.002458666902362691
2256.0,0.008834655919568822
2260.0,0.003240672173478132
2264.0,-0.005107568225935272
2268.0,0.006348128340314203
2272.0,0.00813527894218807
2276.0,0.010846427848968929
2280.0,-0.013783951926823988
2284.0,0.012070835982860862
2288.0,0.0003438339583075495
2292.0,-0.007618382648309336
2296.0,-0.015595909242781172
2300.0,-0.00907995688212471
2304.0,-0.046946228508130405
2308.0,-0.06808206569994062
2312.0,-0.1258726277878231
2316.0,-0.15055889734394406
2320.0,-0.01550189325985324
2324.0,0.17955625558337274
2328.0,0.4047925168365755
2332.0,0.5902288382424851
2336.0,0.8097594579478005
2340.0,1.0093744914962457
2344.0,0.7985204544679215
2348.0,0.6065353276236347
2352.0,0.38777299504182255
2356.0,0.2082565212229622
2360.0,0.002805632246385807
2364.0,-0.08041678036193363
2368.0,-0.16207200219656953
2372.0,-0.22614702535406275
2376.0,-0.29872498139242126
2380.0,-0.23515778037864882
2384.0,-0.15423197128898813
2388.0,-0.06406391046566222
2392.0,0.00938800200561983
2396.0,-0.009155341196732227
2400.0,0.01447144732722862
2404.0,-0.00025997466872034895
2408.0,-0.008328218075455442
2412.0,-0.008024624212167614
2416.0,0.026195812495103638
2420.0,0.19591785889977897
2424.0,0.18843744818721359
2428.0,0.20242043224179782
2432.0,0.21071815160497712
2436.0,0.20346998725226767
2440.0,0.21621876117169828
2444.0,0.20412456630555603
2448.0,0.21073801607747594
2452.0,0.19186800424701267
2456.0,0.19899150018181852
2460.0,0.20250626417333864
2464.0,0.19853984262405727
2468.0,0.19477637341522527
2472.0,0.1819078875894784
2476.0,0.19869626184085584
2480.0,0.1957791801756727
2484.0,0.20659372980552587
2488.0,0.20781279649835757
2492.0,0.20567655555478767
2496.0,0.20413036565809847
2500.0,0.20579561842147215
2504.0,0.05364411230356289
2508.0,0.0636464076541978
2512.0,0.0870677863241635
2516.0,0.12456438182151996
2520.0,0.15126440046923134
2524.0,0.17522005766440027
2528.0,0.21366994964259986
2532.0,0.22409044865748118
2536.0,0.24888556136860232
2540.0,0.261100283428443
2544.0,0.28049334703267526
2548.0,0.29011898109123746
2552.0,0.2781998236127618
2556.0,0.28976465239934557
2560.0,0.2800691058294513
2564.0,0.28561254806531405
2568.0,0.29729394370864787
2572.0,0.2970558239028329
2576.0,0.27951748211272587
2580.0,0.24690399930384072
2584.0,0.2536552277992801
2588.0,0.23409446835294295
2592.0,0.2102668450112623
2596.0,0.17350935592207767
2600.0,0.1399873526736526
2604.0,0.11235071832695949
2608.0,0.07677601130978087
2612.0,0.04654100954231445
2616.0,0.03792288087397589
2620.0,0.0007192052212800227
2624.0,0.0006796772366122834
2628.0,0.024837021406036754
2632.0,0.01648026897931627
2636.0,-0.009754502198663032
2640.0,-0.0015252614700836753
2644.0,-0.002442550580872425
2648.0,0.01711399542278776
2652.0,0.0013969318433851633
2656.0,0.01203629129156479
2660.0,-0.007027673917931132
2664.0,0.005606354061421347
2668.0,0.0031359418764687584
2672.0,0.002179588711997405
2676.0,-0.012500288673020204
2680.0,0.016562892999098425
2684.0,-0.0016263606959087036
2688.0,0.021025995841713302
2692.0,0.003836365000768025
2696.0,0.0020038575375692473
2700.0,0.0
2704.0,0.0
2708.0,0.0
2712.0,0.0
2716.0,0.0
2720.0,0.0
2724.0,0.0
2728.0,0.0
2732.0,0.0
2736.0,0.0
2740.0,0.0
2744.0,0.0
2748.0,0.0
2752.0,0.0
2756.0,0.0
2760.0,0.0
2764.0,0.0
2768.0,0.0
2772.0,0.0
2776.0,0.0
2780.0,0.0
2784.0,0.0
2788.0,0.0
2792.0,0.0
2796.0,0.0
2800.0,0.0
2804.0,0.0
2808.0,0.0
2812.0,0.0
2816.0,0.0
2820.0,0.0
2824.0,0.0
2828.0,0.0
2832.0,0.0
2836.0,0.0
2840.0,0.0
2844.0,0.0
2848.0,0.0
2852.0,0.0
2856.0,0.0
2860.0,0.0
2864.0,0.0
2868.0,0.0
2872.0,0.0
2876.0,0.0
2880.0,0.0
2884.0,0.0
2888.0,0.0
2892.0,0.0
2896.0,0.0
2900.0,-0.0031533453170227753
2904.0,0.0017214606454109647
2908.0,-0.001555226380965832
2912.0,0.01568641963159069
2916.0,-0.016821898546277407
2920.0,0.005447133041551744
2924.0,0.0006164625097393853
2928.0,-0.025512425980462907
2932.0,0.0035820814287527746
2936.0,-0.016739718443505105
2940.0,-0.002387734444225135
2944.0,0.03095545624474052
2948.0,0.05009527650375987
2952.0,0.09086469250041734
2956.0,0.1405557691632029
2960.0,0.13877689843121843
2964.0,0.17168390912039422
2968.0,0.1892276745407235
2972.0,0.1868874389609679
2976.0,0.2034992189599632
2980.0,0.20561558949177725
2984.0,0.19152988344374808
2988.0,0.20696900709228003
2992.0,0.1668864042685605
2996.0,0.17639912110302075
3000.0,0.15158152735375846
3004.0,0.11253825120085062
3008.0,0.07705103969664293
3012.0,0.06490575703002587
3016.0,0.040323515196737866
3020.0,0.006388288986065122
3024.0,0.012576631979833204
3028.0,0.004813180472891888
3032.0,-0.00849658182407948
3036.0,-0.00451460508779952
3040.0,-0.014245474793984237
3044.0,-0.0032158827296674994
3048.0,0.008663677281192432
3052.0,-0.008022678630892111
3056.0,-0.0049486775361228435
3060.0,-0.007798100581045278
3064.0,0.004541139635867889
3068.0,0.005276564789958091
3072.0,-0.019819482866509194
3076.0,0.0023580950281394163
3080.0,0.008105577004360707
3084.0,-0.011236678286720748
3088.0,0.017343066418826776
3092.0,0.0005409752582707635
3096.0,0.0022377967381163656
3100.0,0.005645068824528919
3104.0,-0.05197681673898457
3108.0,-0.09589462533985837
3112.0,-0.11792085072137842
3116.0,-0.17517881892363352
3120.0,0.005332756134315934
3124.0,0.19317064971560738
3128.0,0.39966935087830874
3132.0,0.5921032614547962
3136.0,0.8007117746703085
3140.0,1.0065806835864988
3144.0,0.7971961139437846
3148.0,0.5862999362599705
3152.0,0.3861543437760716
3156.0,0.19731926864653554
3160.0,0.005044832701012064
3164.0,-0.06345611541555223
3168.0,-0.1371020045548063
3172.0,-0.23665473574667176
3176.0,-0.2783686468852864
3180.0,-0.2216997299206732
3184.0,-0.13774855443050818
3188.0,-0.0793910953582589
3192.0,-0.009021729031427868
3196.0,-0.0018083572108678917
3200.0,-0.004866298342203811
3204.0,0.0033862071080158563
3208.0,0.009153798058059017
3212.0,-0.007351957502894719
3216.0,-0.0017537056733475263
3220.0,0.19530023005315636
3224.0,0.19827941151148595
3228.0,0.18527528792332154
3232.0,0.20166243258797886
3236.0,0.20462323451846087
3240.0,0.20591286529193298
3244.0,0.2029759080441978
3248.0,0.20382279253663457
3252.0,0.20407618062893704
3256.0,0.19903213995648658
3260.0,0.21244539016836095
3264.0,0.19031601225393585
3268.0,0.2048196733208166
3272.0,0.19259407053315142
3276.0,0.21260098017497273
3280.0,0.2116809298020515
3284.0,0.19371746297980283
3288.0,0.2082452441388366
3292.0,0.2001516088744386
3296.0,0.1979222232990685
3300.0,0.2140936981113793
3304.0,0.039779090226869075
3308.0,0.05300592673148949
3312.0,0.0742485489507207
3316.0,0.13214781888181454
3320.0,0.15792433666369557
3324.0,0.17504080339107275
3328.0,0.19154713832577291
3332.0,0.225586406912702
3336.0,0.24633559243035283
3340.0,0.26670409575146936
3344.0,0.28146630915450904
3348.0,0.2748845128395392
3352.0,0.2800215060622786
3356.0,0.29527452043902264
3360.0,0.3021891398816052
3364.0,0.29510194899764236
3368.0,0.28784393474186554
3372.0,0.28795855472627885
3376.0,0.2796807132915464
3380.0,0.2689141424447341
3384.0,0.2565069754972845
3388.0,0.22703982663059882
3392.0,0.20182512747190576
3396.0,0.177464504856472
3400.0,0.14823191640316094
3404.0,0.11977157866326466
3408.0,0.10124127889111112
3412.0,0.06493305425142126
3416.0,0.00579443455812962
3420.0,0.010126772685361232
3424.0,-0.014173743259253878
3428.0,0.004303783856945838
3432.0,-0.007889312937467328
3436.0,-0.005276413321944989
3440.0,0.002235592306318999
3444.0,-0.0007269796331112267
3448.0,0.0004981456526029347
3452.0,-0.006034223535554134
3456.0,0.010111808024182998
3460.0,0.004034043706687117
3464.0,0.0036169859975409557
3468.0,0.01317151638898509
3472.0,-0.013071737385530248
3476.0,-0.004049027021360339
3480.0,-0.008542619273845054
3484.0,-0.0019291871940405353
3488.0,-0.005975957490050994
3492.0,0.010275419792045597
3496.0,-0.007300161342455944
3500.0,0.0
3504.0,0.0
3508.0,0.0
3512.0,0.0
3516.0,0.0
3520.0,0.0
3524.0,0.0
3528.0,0.0
3532.0,0.0
3536.0,0.0
3540.0,0.0
3544.0,0.0
3548.0,0.0
3552.0,0.0
3556.0,0.0
3560.0,0.0
3564.0,0.0
3568.0,0.0
3572.0,0.0
3576.0,0.0
3580.0,0.0
3584.0,0.0
3588.0,0.0
3592.0,0.0
3596.0,0.0
3600.0,0.0
3604.0,0.0
3608.0,0.0
3612.0,0.0
3616.0,0.0
3620.0,0.0
3624.0,0.0
3628.0,0.0
3632.0,0.0
3636.0,0.0
3640.0,0.0
3644.0,0.0
3648.0,0.0
3652.0,0.0
3656.0,0.0
3660.0,0.0
3664.0,0.0
3668.0,0.0
3672.0,0.0
3676.0,0.0
3680.0,0.0
3684.0,0.0
3688.0,0.0
3692.0,0.0
3696.0,0.0
3700.0,0.00875852009562443
3704.0,0.0053492745912208485
3708.0,-0.011472715510712743
3712.0,-0.0005656131187560427
3716.0,-0.014586196980468811
3720.0,-0.0010930309707009882
3724.0,-0.01902127965548218
3728.0,-0.0022508376142867143
3732.0,-0.009664065823822622
3736.0,-0.00453577104340555
3740.0,-0.005743711573751987
3744.0,0.030479202828339085
3748.0,0.055310800847768134
3752.0,0.08762109637514141
3756.0,0.11030469720499075
3760.0,0.13836375803873002
3764.0,0.17427025060904644
3768.0,0.18239931280812866
3772.0,0.17762958993355338
3776.0,0.21458512922643133
3780.0,0.2085175452057934
3784.0,0.19433061269709792
3788.0,0.18441766193496065
3792.0,0.18743871418337518
3796.0,0.1710254231325947
3800.0,0.1499684479651223
3804.0,0.12430132302092284
3808.0,0.10038651034713995
3812.0,0.07525599547818433
3816.0,0.04620595396638793
3820.0,-0.0034147219525341166
3824.0,-0.002018825712903491
3828.0,-0.003622795373161127
3832.0,0.023184260887381153
3836.0,0.012153029472206398
3840.0,0.008570108822772973
3844.0,-0.0017760133170076817
3848.0,0.01265160482418662
3852.0,-0.00282473097624193
3856.0,0.001998041821524399
3860.0,-0.00825411933199043
3864.0,0.003265991329370618
3868.0,0.006175151781190637
3872.0,0.005514989322915631
3876.0,0.010834865259029887
3880.0,0.0037603502484434555
3884.0,-0.0029201259560179367
3888.0,0.007300039090265746
3892.0,0.008964699298486674
3896.0,0.010782109132273324
3900.0,-0.009343291207461189
3904.0,-0.05795845091675457
3908.0,-0.08119131512188084
3912.0,-0.12116086627987711
3916.0,-0.1813868951622351
3920.0,0.00161150269145681
3924.0,0.2151809133825471
3928.0,0.418677050495732
3932.0,0.6014188522218938
3936.0,0.7929653157211635
3940.0,1.0088296523449383
3944.0,0.7995015816768253
3948.0,0.612519785863547
3952.0,0.40344142293908963
3956.0,0.1834547725232898
3960.0,-0.009598966096292093
3964.0,-0.07828081663908087
3968.0,-0.16762874481242915
3972.0,-0.24272798352171635
3976.0,-0.298199215165044
3980.0,-0.22650203331009947
3984.0,-0.15262148404469408
3988.0,-0.06544683048195468
3992.0,0.001448350346649007
3996.0,-0.000379491896369766
4000.0,-0.01657656894647854
4004.0,0.002044234450555985
4008.0,0.0034418367597023602
4012.0,-0.006668642060691724
4016.0,0.00201563754243764
4020.0,0.17837912908440834
4024.0,0.19064240026618265
4028.0,0.19140763907676475
4032.0,0.21627387387837926
4036.0,0.17934810545780572
4040.0,0.21966234476452182
4044.0,0.18972318047953227
4048.0,0.20358037307835705
4052.0,0.2024070030710723
4056.0,0.19830924426803026
4060.0,0.20363839822747493
4064.0,0.20971641320831663
4068.0,0.1935104056220926
4072.0,0.1879824228004763
4076.0,0.20205992374330536
4080.0,0.21493104994474577
4084.0,0.20154397524044393
4088.0,0.19308571715699568
4092.0,0.20862976188002919
4096.0,0.22211002958720083
4100.0,0.2093998042134282
4104.0,0.02535074660857875
4108.0,0.062078659504512794
4112.0,0.08961142827759479
4116.0,0.137039396723698
4120.0,0.14262796366313965
4124.0,0.15985100235288513
4128.0,0.18991454619199885
4132.0,0.24146424117770018
4136.0,0.22769540031567348
4140.0,0.2669297377490241
4144.0,0.26835105487152644
4148.0,0.2817082096463575
4152.0,0.2761418028510128
4156.0,0.3106852470441044
4160.0,0.2883073603664703
4164.0,0.3054853402199295
4168.0,0.28393819819008886
4172.0,0.27738212575249
4176.0,0.2828243988771785
4180.0,0.2622612799136273
4184.0,0.24182567262516633
4188.0,0.23133218229141053
4192.0,0.1918197362038154
4196.0,0.1645654934645938
4200.0,0.1577538840609125
4204.0,0.10011370359605759
4208.0,0.08043852831619101
4212.0,0.060571411823650674
4216.0,0.04272608586649512
4220.0,-0.004736599699235914
4224.0,-0.00013203820428374876
4228.0,-0.01387586735625528
4232.0,-0.01943660160933891
4236.0,-0.0229558949793396
4240.0,0.008675222083524893
4244.0,-0.006851336891278112
4248.0,-0.009952696322042303
4252.0,0.007740005283462875
4256.0,0.01278560611333828
4260.0,-0.01563958212935938
4264.0,0.00548133427903371
4268.0,-0.0093550363494864
4272.0,0.001514463058289826
4276.0,-0.0011962532283189447
4280.0,0.004779285908419468
4284.0,0.004996258433520722
4288.0,0.00241181837965761
4292.0,0.015717148846148138
4296.0,0.007391633705691796
4300.0,0.0
4304.0,0.0
4308.0,0.0
4312.0,0.0
4316.0,0.0
4320.0,0.0
4324.0,0.0
4328.0,0.0
4332.0,0.0
4336.0,0.0
4340.0,0.0
4344.0,0.0
4348.0,0.0
4352.0,0.0
4356.0,0.0
4360.0,0.0
4364.0,0.0
4368.0,0.0
4372.0,0.0
4376.0,0.0
4380.0,0.0
4384.0,0.0
4388.0,0.0
4392.0,0.0
4396.0,0.0
4400.0,0.0
4404.0,0.0
4408.0,0.0
4412.0,0.0
4416.0,0.0
4420.0,0.0
4424.0,0.0
4428.0,0.0
4432.0,0.0
4436.0,0.0
4440.0,0.0
4444.0,0.0
4448.0,0.0
4452.0,0.0
4456.0,0.0
4460.0,0.0
4464.0,0.0
4468.0,0.0
4472.0,0.0
4476.0,0.0
4480.0,0.0
4484.0,0.0
4488.0,0.0
4492.0,0.0
4496.0,0.0
4500.0,-0.003434570781378219
4504.0,0.008928747174049177
4508.0,0.007874406718097087
4512.0,-0.0009586641060284506
4516.0,0.006376637052710153
4520.0,-0.006564447224888839
4524.0,-0.014987493479565545
4528.0,0.004742789075595838
4532.0,0.0017028317248060387
4536.0,0.01151496753469104
4540.0,-0.0026123321113919623
4544.0,0.04210973083917112
4548.0,0.059902085828214324
4552.0,0.10657475547105998
4556.0,0.11986741881329865
4560.0,0.14302431177982805
4564.0,0.14433476583465404
4568.0,0.1766925326714749
4572.0,0.19146973198617312
4576.0,0.1942678250336736
4580.0,0.204189320386003
4584.0,0.2005000431577729
4588.0,0.20202290070637557
4592.0,0.193914396523224
4596.0,0.1811249253154058
4600.0,0.1394381469537981
4604.0,0.1132503610072136
4608.0,0.0999104386971637
4612.0,0.06896710764906593
4616.0,0.030487461123053408
4620.0,-0.0036802013022746846
4624.0,0.01014694440875292
4628.0,-0.0027478555600896327
4632.0,0.006321040495506924
4636.0,-0.005182164828353285
4640.0,0.016435593925069082
4644.0,0.007927580668288574
4648.0,0.0010618450406169465
4652.0,0.021936463817205595
4656.0,0.006861513540226656
4660.0,-0.025123138358350016
4664.0,-0.022222194725609754
4668.0,-0.0071130714213219785
4672.0,-0.004076244919192069
4676.0,-0.0046958963331850635
4680.0,0.012097080839603883
4684.0,-0.007261982168804556
4688.0,0.00369547059334289
4692.0,0.011960900666101254
4696.0,-0.00043054089243113293
4700.0,0.015395261209352125
4704.0,-0.026894486515601092
4708.0,-0.08873454646933401
4712.0,-0.10327234072420884
4716.0,-0.156866873710976
4720.0,5.4842753895779416e-05
4724.0,0.2184885423450076
4728.0,0.4078236461623922
4732.0,0.5946162676098906
4736.0,0.7997687917849702
4740.0,1.0109173391544437
4744.0,0.8107226238420421
4748.0,0.6138988638236823
4752.0,0.39199498522069764
4756.0,0.21860675450004635
4760.0,-0.0076835915808499775
4764.0,-0.07400452470134208
4768.0,-0.1485580644465769
4772.0,-0.22825423538514933
4776.0,-0.2819438102866357
4780.0,-0.21417937253819355
4784.0,-0.15070623975907393
4788.0,-0.0753011403721425
4792.0,0.016164050646419625
4796.0,-0.010034334185855498
4800.0,0.013543664968817471
4804.0,-0.021326586639696964
4808.0,-0.002396073321279128
4812.0,-0.0025846801270498405
4816.0,-0.010511510054220366
4820.0,0.20214723053970202
4824.0,0.21612891397760328
4828.0,0.2026323307529555
4832.0,0.1971019550494561
4836.0,0.1816548167405511
4840.0,0.21626919637071898
4844.0,0.21280862784124932
4848.0,0.2213836819199176
4852.0,0.21257036230851167
4856.0,0.21650229340811736
4860.0,0.193912336955263
4864.0,0.20568661413008169
4868.0,0.1866795514121343
4872.0,0.20240821695735436
4876.0,0.2126403621994064
4880.0,0.1957867670291385
4884.0,0.20409983614697438
4888.0,0.2085295761930565
4892.0,0.18667199835827955
4896.0,0.1958705376060292
4900.0,0.19428456856375917
4904.0,0.04239591390169686
4908.0,0.0686251622675367
4912.0,0.10877091090387267
4916.0,0.11482421933607229
4920.0,0.12092202802551676
4924.0,0.18701434802236833
4928.0,0.20561213913935059
4932.0,0.22594234472998345
4936.0,0.24728513751109557
4940.0,0.25452229930241693
4944.0,0.2730072491665631
4948.0,0.30323537750251117
4952.0,0.2779649603048995
4956.0,0.3030367218975792
4960.0,0.31032904666133687
4964.0,0.30195416071001285
4968.0,0.29063575989374507
4972.0,0.2796952536624754
4976.0,0.28534112681082946
4980.0,0.25965052108437137
4984.0,0.2559678768844596
4988.0,0.22361891241212173
4992.0,0.21459921753448707
4996.0,0.1730907837914065
5000.0,0.16804875237055344
5004.0,0.13305850500743321
5008.0,0.08624649406057974
5012.0,0.08010316347756403
5016.0,0.011886906265986898
5020.0,-0.01264418709138898
5024.0,0.0007206169229475525
5028.0,-0.008567090688394436
5032.0,0.014674048989467524
5036.0,0.0003216104825708678
5040.0,0.00914242529900291
5044.0,0.009577410243471068
5048.0,-0.000878741202847482
5052.0,-0.0030100140238683115
5056.0,-0.000275858329148916
5060.0,0.004233137038215669
5064.0,0.015405872800613032
5068.0,-0.0018282956164477919
5072.0,-0.004110129245382568
5076.0,-0.001764967173063404
5080.0,-0.010511720717361468
5084.0,-0.00715342276230754
5088.0,-0.01022385091006722
5092.0,-0.005954439217938832
5096.0,-0.003211440077573492
5100.0,0.0
5104.0,0.0
5108.0,0.0
5112.0,0.0
5116.0,0.0
5120.0,0.0
5124.0,0.0
5128.0,0.0
5132.0,0.0
5136.0,0.0
5140.0,0.0
5144.0,0.0
5148.0,0.0
5152.0,0.0
5156.0,0.0
5160.0,0.0
5164.0,0.0
5168.0,0.0
5172.0,0.0
5176.0,0.0
5180.0,0.0
5184.0,0.0
5188.0,0.0
5192.0,0.0
5196.0,0.0
5200.0,0.0
5204.0,0.0
5208.0,0.0
5212.0,0.0
5216.0,0.0
5220.0,0.0
5224.0,0.0
5228.0,0.0
5232.0,0.0
5236.0,0.0
5240.0,0.0
5244.0,0.0
5248.0,0.0
5252.0,0.0
5256.0,0.0
5260.0,0.0
5264.0,0.0
5268.0,0.0
5272.0,0.0
5276.0,0.0
5280.0,0.0
5284.0,0.0
5288.0,0.0
5292.0,0.0
5296.0,0.0
5300.0,-0.0003929091389382557
5304.0,0.003072342099646179
5308.0,0.00949411178733082
5312.0,-0.005107411770531587
5316.0,-0.017232647667096458
5320.0,0.007722180388534906
5324.0,0.009075731294754369
5328.0,-0.007493370705710546
5332.0,0.008012709484178194
5336.0,0.002342520303081246
5340.0,0.008881766997476656
5344.0,0.022221063171797353
5348.0,0.06581447156044473
5352.0,0.08529536122077593
5356.0,0.10093785219357956
5360.0,0.12210499459407038
5364.0,0.15542512370359696
5368.0,0.17822721437741584
5372.0,0.17500136390706475
5376.0,0.1961285861620774
5380.0,0.19946115831209127
5384.0,0.21457489110371566
5388.0,0.19311540568911084
5392.0,0.18581657845662078
5396.0,0.1573296089500385
5400.0,0.14667872497826165
5404.0,0.12077195063457472
5408.0,0.09436695066699605
5412.0,0.045146991342529655
5416.0,0.039270072290419754
5420.0,-0.015038841193616084
5424.0,-0.011064928885524529
5428.0,-0.010749773237428165
5432.0,0.005368691935872305
5436.0,-0.0008465273995840251
5440.0,0.011856441972798065
5444.0,-0.014775446911720398
5448.0,-0.016128444538248028
5452.0,-0.006173018126266039
5456.0,0.0066192582996705265
5460.0,0.00421962339604691
5464.0,0.005457631071818168
5468.0,-0.006754229106179679
5472.0,-0.003397052647953053
5476.0,0.004653088212632899
5480.0,-0.01752511342464951
5484.0,-0.0007057077171443879
5488.0,0.0025473663997426592
5492.0,0.009039630927870109
5496.0,-0.005388354355457807
5500.0,0.01564032382337573
5504.0,-0.043049446813274043
5508.0,-0.09202340236340906
5512.0,-0.12034535792300344
5516.0,-0.15571122741573246
5520.0,-0.0023424002386271394
5524.0,0.21775648783411702
5528.0,0.3831124852479724
5532.0,0.6126515574251618
5536.0,0.8105841972194242
5540.0,0.9962147329176961
5544.0,0.8113931361678047
5548.0,0.5979299302848653
5552.0,0.3926370824960719
5556.0,0.20244669257577586
5560.0,-0.010902614715977126
5564.0,-0.07549414717568412
5568.0,-0.14815115117972735
5572.0,-0.2334008824052797
5576.0,-0.2911021542414721
5580.0,-0.2354778201609953
5584.0,-0.1424426686179792
5588.0,-0.08272484958143944
5592.0,0.006448338593720224
5596.0,0.0004108424376877263
5600.0,-0.005834222202947253
5604.0,0.000866958703300552
5608.0,-0.008990992695084306
5612.0,-0.023950390265272823
5616.0,-0.012763686172195518
5620.0,0.17543256272974156
5624.0,0.17616705557599402
5628.0,0.1930092965909846
5632.0,0.20420313401375242
5636.0,0.20491836270062333
5640.0,0.17559393961508127
5644.0,0.18566136079169238
5648.0,0.19543516206181646
5652.0,0.19732005795407015
5656.0,0.20051861942207405
5660.0,0.20798058211360437
5664.0,0.2011661688638469
5668.0,0.20550757960431337
5672.0,0.2042351735272363
5676.0,0.18782322574844693
5680.0,0.20606589516110124
5684.0,0.19870906889924686
5688.0,0.20037506800306873
5692.0,0.18722145883008562
5696.0,0.18742535300996646
5700.0,0.20949405724679326
5704.0,0.024864702036749342
5708.0,0.07450069450204656
5712.0,0.09762226324115793
5716.0,0.12323328202396565
5720.0,0.1472443697984662
5724.0,0.17296820880698158
5728.0,0.20067787572247597
5732.0,0.22103204435226162
5736.0,0.24725407968156043
5740.0,0.2785836388075164
5744.0,0.27201279945360113
5748.0,0.28076144063901487
5752.0,0.28750824923811646
5756.0,0.2856019564446711
5760.0,0.31843086335510384
5764.0,0.30178804388745406
5768.0,0.29261861306116443
5772.0,0.29163869094692896
5776.0,0.28644958876702575
5780.0,0.25888019488283043
5784.0,0.23554650991709772
5788.0,0.20670516507376355
5792.0,0.2055467861914031
5796.0,0.17625205156686907
5800.0,0.14815244022906984
5804.0,0.10833964174986063
5808.0,0.09222346937063074
5812.0,0.05988756182141896
5816.0,0.022766095912216483
5820.0,-0.0023782709003460833
5824.0,-0.011662422679556613
5828.0,-0.007184605743929277
5832.0,0.008135398458160772
5836.0,-0.005123932744317518
5840.0,0.0057997459623778625
5844.0,-0.0028573173849652613
5848.0,0.004068597549786781
5852.0,0.0013834330815467705
5856.0,0.0047161856337297105
5860.0,0.008699921104917654
5864.0,-2.3679572250976377e-05
5868.0,0.0010431800107283448
5872.0,-0.009316931749675038
5876.0,-0.013239173176226257
5880.0,-0.001394788216348994
5884.0,0.002179261783268495
5888.0,0.014787320982818
5892.0,0.010189567113789176
5896.0,0.001043693435416545
5900.0,0.0
5904.0,0.0
5908.0,0.0
5912.0,0.0
5916.0,0.0
5920.0,0.0
5924.0,0.0
5928.0,0.0
5932.0,0.0
5936.0,0.0
5940.0,0.0
5944.0,0.0
5948.0,0.0
5952.0,0.0
5956.0,0.0
5960.0,0.0
5964.0,0.0
5968.0,0.0
5972.0,0.0
5976.0,0.0
5980.0,0.0
5984.0,0.0
5988.0,0.0
5992.0,0.0
5996.0,0.0
6000.0,0.0
6004.0,0.0
6008.0,0.0
6012.0,0.0
6016.0,0.0
6020.0,0.0
6024.0,0.0
6028.0,0.0
6032.0,0.0
6036.0,0.0
6040.0,0.0
6044.0,0.0
6048.0,0.0
6052.0,0.0
6056.0,0.0
6060.0,0.0
6064.0,0.0
6068.0,0.0
6072.0,0.0
6076.0,0.0
6080.0,0.0
6084.0,0.0
6088.0,0.0
6092.0,0.0
6096.0,0.0
6100.0,0.0003410402423643439
6104.0,0.010667763582382188
6108.0,-0.0039708490943052115
6112.0,-0.004175379927367335
6116.0,-0.010999421123048959
6120.0,0.0011851243682170286
6124.0,0.014799059261502523
6128.0,-0.015775811301448596
6132.0,0.0005117508776731662
6136.0,0.01698567501809687
6140.0,-0.004106077996613815
6144.0,0.025744583125716508
6148.0,0.06784571180585673
6152.0,0.09861033395096216
6156.0,0.10980766415121095
6160.0,0.15422379232325606
6164.0,0.15500552609829385
6168.0,0.18713309954694415
6172.0,0.19510222195700205
6176.0,0.20780753447271277
6180.0,0.20815976417160117
6184.0,0.20358342423138265
6188.0,0.1804928153830879
6192.0,0.19564290421769945
6196.0,0.14936367912289072
6200.0,0.14064954372402522
6204.0,0.11100607838557996
6208.0,0.09491425689821116
6212.0,0.04853351064457416
6216.0,0.03173588372031829
6220.0,-0.010319711157182596
6224.0,-0.0042414935111181225
6228.0,-0.00645119244145507
6232.0,0.02240360971757819
6236.0,0.01523280734517767
6240.0,-0.0043631447732751915
6244.0,-0.012266609316412833
6248.0,-0.00659424481795943
6252.0,-0.007048919570309779
6256.0,-0.0013976703629735615
6260.0,-0.0008171236166109547
6264.0,0.019784717349000346
6268.0,-0.013193597519426321
6272.0,-0.004266972307465599
6276.0,0.019593816406747202
6280.0,0.012415698891729972
6284.0,-0.0003748517553687839
6288.0,0.011086990530413359
6292.0,0.00971169569837529
6296.0,-0.0019042115057650965
6300.0,0.015056920605792357
6304.0,-0.04342859612684333
6308.0,-0.0814598304129349
6312.0,-0.11214462354145045
6316.0,-0.15551789892512022
6320.0,0.0044085931815155376
6324.0,0.20426545237873134
6328.0,0.3997307162353739
6332.0,0.6054063906047434
6336.0,0.7871020511199018
6340.0,0.9988629861296203
6344.0,0.8092863392031747
6348.0,0.6060026304273195
6352.0,0.390761938361013
6356.0,0.2054567111523389
6360.0,0.004163105970860799
6364.0,-0.0948835678733061
6368.0,-0.15495799132262034
6372.0,-0.2256454809022088
6376.0,-0.3033758535809615
6380.0,-0.22638569261262276
6384.0,-0.1514338501444329
6388.0,-0.05751090096607798
6392.0,0.005187596181836625
6396.0,0.01415773515586324
6400.0,0.0047158403523179125
6404.0,0.005488719109391125
6408.0,0.0048539934918863685
6412.0,-0.012575538451692934
6416.0,-0.02661397579675379
6420.0,0.18618790121167622
6424.0,0.2042111109890877
6428.0,0.21164943041634596
6432.0,0.1881941833081593
6436.0,0.19857578505411996
6440.0,0.20727378858900586
6444.0,0.20446945567736996
6448.0,0.20883241763974875
6452.0,0.209770263471298
6456.0,0.2072998476484413
6460.0,0.21287427437241957
6464.0,0.21159448097946426
6468.0,0.21167522125745558
6472.0,0.1896578229674656
6476.0,0.21105613073777102
6480.0,0.2075721317502958
6484.0,0.2281698715459797
6488.0,0.18829197646440238
6492.0,0.19302307923101183
6496.0,0.19520254802024053
6500.0,0.19754055131790824
6504.0,0.02312365597229472
6508.0,0.054114998259933184
6512.0,0.0972315182222858
6516.0,0.1145876902150391
6520.0,0.14824492585875512
6524.0,0.17015279314606824
6528.0,0.20881321357340382
6532.0,0.22729615551685153
6536.0,0.2195725008230737
6540.0,0.2590668251505999
6544.0,0.28308415136022363
6548.0,0.26697851491783275
6552.0,0.2887910241928717
6556.0,0.2928102603130664
6560.0,0.30196228934432
6564.0,0.31227014691982985
6568.0,0.28477535356392314
6572.0,0.2744701256344607
6576.0,0.2748443769236363
6580.0,0.24968035307939407
6584.0,0.2566186570763088
6588.0,0.2244687178736009
6592.0,0.22018614936845154
6596.0,0.16780709923664786
6600.0,0.13692951320517005
6604.0,0.12450388498997626
6608.0,0.10834982924163011
6612.0,0.054389689985946225
6616.0,0.027389804977889332
6620.0,0.006768278345850884
6624.0,-0.01174102387572837
6628.0,0.011497064806425374
6632.0,-0.011890729149825996
6636.0,-0.007159932560392102
6640.0,-0.010955928171955549
6644.0,0.0012253834953377526
6648.0,0.00553652622279349
6652.0,-0.0031351115727160906
6656.0,-0.01917341930003777
6660.0,0.010652825475809527
6664.0,0.006942169270796168
6668.0,0.0011790774951965972
6672.0,0.007082790049577864
6676.0,0.0005505127357952722
6680.0,-0.016782996146144643
6684.0,0.007169563402828582
6688.0,0.009006030265141777
6692.0,0.015481819839664233
6696.0,0.015182049400397205
6700.0,0.0
6704.0,0.0
6708.0,0.0
6712.0,0.0
6716.0,0.0
6720.0,0.0
6724.0,0.0
6728.0,0.0
6732.0,0.0
6736.0,0.0
6740.0,0.0
6744.0,0.0
6748.0,0.0
6752.0,0.0
6756.0,0.0
6760.0,0.0
6764.0,0.0
6768.0,0.0
6772.0,0.0
6776.0,0.0
6780.0,0.0
6784.0,0.0
6788.0,0.0
6792.0,0.0
6796.0,0.0
6800.0,0.0
6804.0,0.0
6808.0,0.0
6812.0,0.0
6816.0,0.0
6820.0,0.0
6824.0,0.0
6828.0,0.0
6832.0,0.0
6836.0,0.0
6840.0,0.0
6844.0,0.0
6848.0,0.0
6852.0,0.0
6856.0,0.0
6860.0,0.0
6864.0,0.0
6868.0,0.0
6872.0,0.0
6876.0,0.0
6880.0,0.0
6884.0,0.0
6888.0,0.0
6892.0,0.0
6896.0,0.0
6900.0,0.016064959330599485
6904.0,0.01341448326589518
6908.0,-0.00760114933712806
6912.0,-0.012244926950254817
6916.0,0.016725641574123828
6920.0,0.015012897320582386
6924.0,-0.01328512423900953
6928.0,-0.011110047386956874
6932.0,0.0015521626380145587
6936.0,-0.006922219558248259
6940.0,0.008001450611231356
6944.0,0.04367483588705845
6948.0,0.0668900127996982
6952.0,0.11142006882646698
6956.0,0.11215465798353394
6960.0,0.1343173350016732
6964.0,0.172307427797404
6968.0,0.18933229046615402
6972.0,0.1706055318281772
6976.0,0.2001593762078345
6980.0,0.2048169973370368
6984.0,0.19100276393126076
6988.0,0.1983420758393083
6992.0,0.18119565667766635
6996.0,0.1460366196508015
7000.0,0.1670001076943671
7004.0,0.1309040070393624
7008.0,0.08279040501770574
7012.0,0.06276698303298352
7016.0,0.027751667655721707
7020.0,0.014979087592432555
7024.0,0.0043372922082909465
7028.0,-0.006674176142541799
7032.0,0.0032900970086233144
7036.0,0.013842019431172138
7040.0,-0.004415912200508539
7044.0,0.015557327325762538
7048.0,0.006445546990908919
7052.0,0.0003188586300151707
7056.0,-0.0012675972162458852
7060.0,-0.006533884765810146
7064.0,-0.021979327216146986
7068.0,0.014396488999304935
7072.0,-0.003049124559920921
7076.0,-0.007469283516866355
7080.0,-0.0005567264763888495
7084.0,0.008092720194487604
7088.0,0.0032064954226710624
7092.0,-0.009239525898906335
7096.0,-0.0067985177646842565
7100.0,-0.0003000919695430043
7104.0,-0.03150898263371214
7108.0,-0.10047880256045823
7112.0,-0.09770249474184307
7116.0,-0.1629472495894787
7120.0,-0.004828809911268822
7124.0,0.20207608388315842
7128.0,0.3995407964298816
7132.0,0.5848106751232935
7136.0,0.8094267410861827
7140.0,1.0061996333073042
7144.0,0.8183636284186282
7148.0,0.6092118539622515
7152.0,0.3844143287763244
7156.0,0.2040859299782171
7160.0,0.006132407213356663
7164.0,-0.09162786885308731
7168.0,-0.15445422556994237
7172.0,-0.20821414965205792
7176.0,-0.2997163979343866
7180.0,-0.22569318742599664
7184.0,-0.13911738292646744
7188.0,-0.0596051801530542
7192.0,0.012675564358673303
7196.0,0.012193027166723686
7200.0,-0.013564107166504462
7204.0,-0.00820301719820958
7208.0,0.0050163573227324084
7212.0,-0.014805841699138131
7216.0,-0.008297992883437506
7220.0,0.20165896378512324
7224.0,0.1813338944416547
7228.0,0.20095438400875765
7232.0,0.21250756837209828
7236.0,0.19442184652454675
7240.0,0.19195607129056763
7244.0,0.19582049241865457
7248.0,0.19638524641540628
7252.0,0.19858168778586735
7256.0,0.19923723704786964
7260.0,0.1969815237801897
7264.0,0.19551345766770525
7268.0,0.1815990406551855
7272.0,0.20383540292435465
7276.0,0.2088209006873716
7280.0,0.20603791542166963
7284.0,0.20702389082234104
7288.0,0.19656327883446142
7292.0,0.2105597104269431
7296.0,0.2034189805108817
7300.0,0.20468560313800424
7304.0,0.03141906683274388
7308.0,0.05782729139716379
7312.0,0.10464046332650147
7316.0,0.11839516749215807
7320.0,0.13712183724665175
7324.0,0.18601054082373883
7328.0,0.2000439123277535
7332.0,0.21970703627924623
7336.0,0.2537315822780731
7340.0,0.2646860538248897
7344.0,0.2546863916673933
7348.0,0.30569187123391806
7352.0,0.28879262087224566
7356.0,0.31073264050490473
7360.0,0.31306074935826683
7364.0,0.2864204125866569
7368.0,0.30882547331293264
7372.0,0.2959046704644286
7376.0,0.2704238389858335
7380.0,0.26730166480391565
7384.0,0.24913144307779983
7388.0,0.23612825164883383
7392.0,0.1909577012971168
7396.0,0.16894611748856703
7400.0,0.1559110160419825
7404.0,0.11804860094127492
7408.0,0.08838317600169655
7412.0,0.04998218239483172
7416.0,0.023580218253317485
7420.0,0.006950616425307448
7424.0,0.016299823994473904
7428.0,0.012959009048758309
7432.0,0.021583517919828103
7436.0,0.00286110900045495
7440.0,0.01175909629506281
7444.0,-0.0037461651654458017
7448.0,-0.006323202090744129
7452.0,-0.005798563719000869
7456.0,-0.00889443348861055
7460.0,-0.005525197733304267
7464.0,0.0019010247907051345
7468.0,-0.008834464729959966
7472.0,-0.009444865771356595
7476.0,0.0010638278613570205
7480.0,-0.0074493866104960605
7484.0,0.008356743157160352
7488.0,0.008349684780351271
7492.0,-0.011876531628548008
7496.0,0.008188140240420418
7500.0,0.0
7504.0,0.0
7508.0,0.0
7512.0,0.0
7516.0,0.0
7520.0,0.0
7524.0,0.0
7528.0,0.0
7532.0,0.0
7536.0,0.0
7540.0,0.0
7544.0,0.0
7548.0,0.0
7552.0,0.0
7556.0,0.0
7560.0,0.0
7564.0,0.0
7568.0,0.0
7572.0,0.0
7576.0,0.0
7580.0,0.0
7584.0,0.0
7588.0,0.0
7592.0,0.0
7596.0,0.0
7600.0,0.0
7604.0,0.0
7608.0,0.0
7612.0,0.0
7616.0,0.0
7620.0,0.0
7624.0,0.0
7628.0,0.0
7632.0,0.0
7636.0,0.0
7640.0,0.0
7644.0,0.0
7648.0,0.0
7652.0,0.0
7656.0,0.0
7660.0,0.0
7664.0,0.0
7668.0,0.0
7672.0,0.0
7676.0,0.0
7680.0,0.0
7684.0,0.0
7688.0,0.0
7692.0,0.0
7696.0,0.0
7700.0,0.001628827013271425
7704.0,-0.0023478076982281436
7708.0,-0.0072262190675146
7712.0,-0.007513132637584285
7716.0,0.01609854201502448
7720.0,-0.006617451390375689
7724.0,0.01373688340526565
7728.0,0.0028115802595093608
7732.0,-0.005305181176246319
7736.0,-0.009129297883311235
7740.0,-0.00014342293411487596
7744.0,0.011621352091120491
7748.0,0.05495733922808046
7752.0,0.0857212732735875
7756.0,0.13936680071425217
7760.0,0.1381924398063675
7764.0,0.15768769559925286
7768.0,0.17959310061669687
7772.0,0.1828318285979441
7776.0,0.19348667228422087
7780.0,0.20980013105364634
7784.0,0.18540438369194961
7788.0,0.19478510798544985
7792.0,0.18311298514306024
7796.0,0.16877474609595997
7800.0,0.12337752028279456
7804.0,0.12146085174367477
7808.0,0.08803157573121284
7812.0,0.07108213224759823
7816.0,0.032625734316609485
7820.0,0.00380937258534561
7824.0,0.007665389744545249
7828.0,0.0035697262810843516
7832.0,-0.009562974789361436
7836.0,-0.0013543224915941285
7840.0,0.0021356852160689006
7844.0,-0.014055701051916298
7848.0,-0.00036429554018055414
7852.0,0.002955667708077002
7856.0,0.0012565207856900873
7860.0,0.006195826124450678
7864.0,-0.010193855039067903
7868.0,-0.009070562614224056
7872.0,0.001655063974784615
7876.0,0.002046900921500145
7880.0,0.0027867246961689085
7884.0,0.003332811586676772
7888.0,-0.004384476042065878
7892.0,-0.010796067172310532
7896.0,0.0035429878522039633
7900.0,0.008308928915178091
7904.0,-0.03994780309987739
7908.0,-0.0970543045317308
7912.0,-0.11263938349609444
7916.0,-0.1744515813534805
7920.0,0.014164927736702655
7924.0,0.19600693231142555
7928.0,0.39590794506978666
7932.0,0.5997481869136045
7936.0,0.807157249065196
7940.0,0.9961477796694985
7944.0,0.7969970904013381
7948.0,0.5870824681621661
7952.0,0.3910838568234581
7956.0,0.21230763068685524
7960.0,0.00140596839719209
7964.0,-0.07813653240443685
7968.0,-0.14418882570768904
7972.0,-0.21752716746569478
7976.0,-0.2934333215250229
7980.0,-0.23161176070312967
7984.0,-0.15541603052289935
7988.0,-0.07001338424554095
7992.0,-0.008305731699916677
7996.0,0.0029984891633272302
8000.0,0.0025992137567194
8004.0,-0.003638060888479356
8008.0,-0.005260468017089395
8012.0,0.0006121099147981997
8016.0,0.011285617487729356
8020.0,0.2059766832407031
8024.0,0.1974772518934454
8028.0,0.1834776686917669
8032.0,0.2140469836909764
8036.0,0.1988559916086468
8040.0,0.21195582886335554
8044.0,0.17370100748412068
8048.0,0.2060252166614268
8052.0,0.21069374986653955
8056.0,0.18769869566253886
8060.0,0.17909254934427193
8064.0,0.20750694541981501
8068.0,0.19253789557570378
8072.0,0.1937920672663831
8076.0,0.19131735481876785
8080.0,0.21837085054587593
8084.0,0.21287205097891052
8088.0,0.1998233118212152
8092.0,0.20628018667858442
8096.0,0.2102303511702546
8100.0,0.20417051760785754
8104.0,0.018133357300165326
8108.0,0.06966763890619003
8112.0,0.1010280202041132
8116.0,0.11241898581982043
8120.0,0.15337400892756894
8124.0,0.18065297311027328
8128.0,0.1932448999606841
8132.0,0.2114258747680315
8136.0,0.23968009223606
8140.0,0.2634049352844886
8144.0,0.2815212493051428
8148.0,0.27676481028415223
8152.0,0.27453913863066853
8156.0,0.2785325979569401
8160.0,0.2987133148360042
8164.0,0.3054053173118472
8168.0,0.3014390820690835
8172.0,0.2917720173085342
8176.0,0.2641996270948837
8180.0,0.26339330237637065
8184.0,0.24149414452781848
8188.0,0.240467655080633
8192.0,0.21132950111839882
8196.0,0.19096914801233203
8200.0,0.1507913413484592
8204.0,0.12760522095172067
8208.0,0.0828498927771166
8212.0,0.04866907974463106
8216.0,0.030920178044097513
8220.0,0.013598698778178365
8224.0,-0.01249824307996188
8228.0,-0.0005220132611898091
8232.0,0.001075508048199257
8236.0,0.010496288272078247
8240.0,-0.004708346256454097
8244.0,-0.004435070889764249
8248.0,4.070126786027733e-05
8252.0,0.007252828555899195
8256.0,0.015276372656241453
8260.0,0.010703266449965025
8264.0,-0.011945488383682904
8268.0,0.009498347390388504
8272.0,-0.0006143126048854195
8276.0,-0.0030460349918121693
8280.0,-0.005448637233667489
8284.0,0.0033334555287452584
8288.0,-0.016301147779725467
8292.0,0.004122257810387805
8296.0,0.0033672326516483537
8300.0,0.0
8304.0,0.0
8308.0,0.0
8312.0,0.0
8316.0,0.0
8320.0,0.0
8324.0,0.0
8328.0,0.0
8332.0,0.0
8336.0,0.0
8340.0,0.0
8344.0,0.0
8348.0,0.0
8352.0,0.0
8356.0,0.0
8360.0,0.0
8364.0,0.0
8368.0,0.0
8372.0,0.0
8376.0,0.0
8380.0,0.0
8384.0,0.0
8388.0,0.0
8392.0,0.0
8396.0,0.0
8400.0,0.0
8404.0,0.0
8408.0,0.0
8412.0,0.0
8416.0,0.0
8420.0,0.0
8424.0,0.0
8428.0,0.0
8432.0,0.0
8436.0,0.0
8440.0,0.0
8444.0,0.0
8448.0,0.0
8452.0,0.0
8456.0,0.0
8460.0,0.0
8464.0,0.0
8468.0,0.0
8472.0,0.0
8476.0,0.0
8480.0,0.0
8484.0,0.0
8488.0,0.0
8492.0,0.0
8496.0,0.0
8500.0,-0.0024014527499124183
8504.0,-0.008436680416166699
8508.0,-0.003796806164929023
8512.0,-0.0006728238583767927
8516.0,0.003616634951670717
8520.0,0.01579317730746901
8524.0,-0.02035478217689566
8528.0,0.007410194176873382
8532.0,-0.01888078138100981
8536.0,0.011680431419969797
8540.0,-0.0064526100779243
8544.0,0.03403295486630578
8548.0,0.043866829383667344
8552.0,0.08566621767719645
8556.0,0.11241776858559781
8560.0,0.13664095581273947
8564.0,0.14976324364764454
8568.0,0.17696879098536034
8572.0,0.18969022332856436
8576.0,0.19979964175340892
8580.0,0.20812993505161367
8584.0,0.18851945832776648
8588.0,0.1986230973447755
8592.0,0.1643269720654506
8596.0,0.15474758478223863
8600.0,0.15516943534599378
8604.0,0.0981068639084621
8608.0,0.0970820929654957
8612.0,0.05191841773832505
8616.0,0.048847197573570214
8620.0,0.009041772226585906
8624.0,-0.0026898713252704793
8628.0,0.0056676511211642645
8632.0,3.435370500152318e-05
8636.0,-0.00524359994126689
8640.0,-0.010396116405064316
8644.0,-0.004218758913811845
8648.0,0.0015087267324880936
8652.0,-0.0038602166540903033
8656.0,-0.008833313755147973
8660.0,-0.008568846708408122
8664.0,0.009346961850883607
8668.0,0.0006347396488988415
8672.0,0.013956162851288255
8676.0,-0.004829328529998518
8680.0,-0.011928664857068458
8684.0,0.0042146348693764945
8688.0,-0.003103281375611561
8692.0,-0.006597555093121978
8696.0,0.01409339477639327
8700.0,0.007057184339685385
8704.0,-0.018637696597749026
8708.0,-0.09339480434253501
8712.0,-0.1361102664131023
8716.0,-0.16359333348117105
8720.0,0.01554245351782732
8724.0,0.20281353561990753
8728.0,0.3969118517768893
8732.0,0.5983927731808248
8736.0,0.7973576413535308
8740.0,0.9963980268919271
8744.0,0.8044579106985998
8748.0,0.6100851273078984
8752.0,0.39843137816701857
8756.0,0.18653504067994245
8760.0,-0.002609827642699056
8764.0,-0.07511799081641615
8768.0,-0.1712423133066642
8772.0,-0.20275396241536156
8776.0,-0.31084348846540494
8780.0,-0.22952613137951272
8784.0,-0.1622687947939535
8788.0,-0.06499412015734392
8792.0,0.004649401258533314
8796.0,0.007403479248248035
8800.0,-0.01249669463328899
8804.0,-0.00010191697671009178
8808.0,0.004670466946002894
8812.0,0.0065434610575826726
8816.0,0.013819171103435479
8820.0,0.1951211449416698
8824.0,0.19979740806501722
8828.0,0.19574258349779233
8832.0,0.2130588360237559
8836.0,0.19852385947706505
8840.0,0.18419023589696384
8844.0,0.21180895146772613
8848.0,0.1963665204285376
8852.0,0.20227579989367123
8856.0,0.1925786261184158
8860.0,0.1997473701518682
8864.0,0.21976977714930304
8868.0,0.2035520337440307
8872.0,0.19889127967765474
8876.0,0.19496887875034358
8880.0,0.21101184083132465
8884.0,0.18513764640006777
8888.0,0.22149516174069958
8892.0,0.18120589830521253
8896.0,0.21445274436169426
8900.0,0.19152732361002076
8904.0,0.028993396832882698
8908.0,0.06874381950602107
8912.0,0.10522673252991008
8916.0,0.10864613080029392
8920.0,0.1584851513358793
8924.0,0.17876085638895195
8928.0,0.2120924598798987
8932.0,0.22365942477475376
8936.0,0.26296575142147854
8940.0,0.25160253384677483
8944.0,0.2806410552803562
8948.0,0.2901517047307579
8952.0,0.30622370769733154
8956.0,0.2922129340299153
8960.0,0.310881012955473
8964.0,0.2928706098515332
8968.0,0.29069359444570747
8972.0,0.27436187663218714
8976.0,0.27638122439446305
8980.0,0.2608106076812613
8984.0,0.2549824288485566
8988.0,0.21984061342787417
8992.0,0.19693185114239511
8996.0,0.17061859944190327
9000.0,0.13858462253106654
9004.0,0.12538518331886117
9008.0,0.08085294755171325
9012.0,0.07396096757624702
9016.0,0.04019784794444267
9020.0,-0.017788261290256277
9024.0,-0.00186269924225288
9028.0,0.022032631545162475
9032.0,0.004890037518600364
9036.0,0.006462823243090514
9040.0,-0.0018889627064282459
9044.0,0.003300821200016695
9048.0,0.0008326840384996772
9052.0,0.006373345210037212
9056.0,-0.017880480155650066
9060.0,0.016547439366758964
9064.0,0.013554587996524292
9068.0,-0.00032586846574292973
9072.0,0.0067845349259579215
9076.0,-0.002428125182933644
9080.0,0.005029637889637546
9084.0,0.0002455187500264931
9088.0,0.005018464860655235
9092.0,-0.00716810015839146
9096.0,0.006881300891464054
9100.0,0.0
9104.0,0.0
9108.0,0.0
9112.0,0.0
9116.0,0.0
9120.0,0.0
9124.0,0.0
9128.0,0.0
9132.0,0.0
9136.0,0.0
9140.0,0.0
9144.0,0.0
9148.0,0.0
9152.0,0.0
9156.0,0.0
9160.0,0.0
9164.0,0.0
9168.0,0.0
9172.0,0.0
9176.0,0.0
9180.0,0.0
9184.0,0.0
9188.0,0.0
9192.0,0.0
9196.0,0.0
9200.0,0.0
9204.0,0.0
9208.0,0.0
9212.0,0.0
9216.0,0.0
9220.0,0.0
9224.0,0.0
9228.0,0.0
9232.0,0.0
9236.0,0.0
9240.0,0.0
9244.0,0.0
9248.0,0.0
9252.0,0.0
9256.0,0.0
9260.0,0.0
9264.0,0.0
9268.0,0.0
9272.0,0.0
9276.0,0.0
9280.0,0.0
9284.0,0.0
9288.0,0.0
9292.0,0.0
9296.0,0.0
9300.0,0.011839804558232614
9304.0,0.012400898858805456
9308.0,0.0051478082652007115
9312.0,-0.00904953760571642
9316.0,0.005067701737845208
9320.0,-0.010650903764831727
9324.0,0.004008465408004982
9328.0,0.012597699575009821
9332.0,-9.199981088339523e-05
9336.0,-0.007822068354426823
9340.0,-0.0099258623188378
9344.0,0.02632012386954684
9348.0,0.06449190376729992
9352.0,0.09030146935551586
9356.0,0.13484689334225702
9360.0,0.14065044660165588
9364.0,0.16671820217396757
9368.0,0.16940195720768036
9372.0,0.17799575882699234
9376.0,0.20587090757638526
9380.0,0.18569903215320258
9384.0,0.19598010312187236
9388.0,0.19085396114258538
9392.0,0.17479631163711332
9396.0,0.15593162692935872
9400.0,0.14837973111168462
9404.0,0.10579933360336145
9408.0,0.08831828518318592
9412.0,0.05214864707824169
9416.0,0.03648987579087403
9420.0,-0.012427539071504077
9424.0,-0.012710512146303705
9428.0,-0.00738682601046641
9432.0,-0.01178879290843892
9436.0,-0.004535600474995901
9440.0,0.004936916898387572
9444.0,-0.0014009283698151595
9448.0,0.0056469427405605975
9452.0,-0.0037534300231238183
9456.0,-0.01612884627343666
9460.0,-0.013330143996999817
9464.0,0.007556932909666143
9468.0,0.0036856926503081333
9472.0,-0.011835497232080758
9476.0,0.0031733941247669762
9480.0,0.015668322558480448
9484.0,0.00876685266311649
9488.0,-7.50692436237213e-05
9492.0,-0.006139699188378936
9496.0,-0.013444711906927254
9500.0,0.009485921284236655
9504.0,-0.048264933650444035
9508.0,-0.06277538180691979
9512.0,-0.10536962908753061
9516.0,-0.1682748116799038
9520.0,0.00024103802461438784
9524.0,0.18573582366683944
9528.0,0.40919177048066874
9532.0,0.5941728270026162
9536.0,0.8057898516933608
9540.0,0.9835562486005708
9544.0,0.8023965211607555
9548.0,0.5922040018378419
9552.0,0.3906943946532772
9556.0,0.1948378155296707
9560.0,0.01816008331265092
9564.0,-0.0744392663697841
9568.0,-0.14148402586255746
9572.0,-0.22851601602953722
9576.0,-0.29186618873420445
9580.0,-0.21873859625042472
9584.0,-0.15666314507324142
9588.0,-0.06938199964829576
9592.0,-0.010862509386143662
9596.0,0.009068888980388467
9600.0,0.006099526646491731
9604.0,-0.011072830035037515
9608.0,0.013876250243634489
9612.0,-0.011828912001923174
9616.0,-0.002506267261450372
9620.0,0.19385802862669738
9624.0,0.1984234096719117
9628.0,0.20238013646984257
9632.0,0.20684157700666966
9636.0,0.18939808189263005
9640.0,0.19763069236153272
9644.0,0.21483071966622314
9648.0,0.20242895744913306
9652.0,0.20907879135808835
9656.0,0.20710135640851787
9660.0,0.2009866512845276
9664.0,0.19194538231875946
9668.0,0.20525949182964368
9672.0,0.19935644497358326
9676.0,0.20478929952159988
9680.0,0.18933901345408166
9684.0,0.19672015532372136
9688.0,0.18941612706349256
9692.0,0.202823588565225
9696.0,0.19033560920891887
9700.0,0.18308535612568733
9704.0,0.03565632266203022
9708.0,0.06520789272120871
9712.0,0.09608336322922394
9716.0,0.12588049978350788
9720.0,0.14563939722383265
9724.0,0.18316624207484988
9728.0,0.2062439101754435
9732.0,0.2339168423442993
9736.0,0.2348062663866626
9740.0,0.2694298769426636
9744.0,0.2689461469708053
9748.0,0.28425359385728777
9752.0,0.2799780090817584
9756.0,0.31084867731246296
9760.0,0.31387665295639267
9764.0,0.2775781514392388
9768.0,0.3095411651963888
9772.0,0.28446525758660274
9776.0,0.26261321887944467
9780.0,0.2659491885932738
9784.0,0.2505701887733748
9788.0,0.22086589799264866
9792.0,0.18966112176731187
9796.0,0.17828911378738202
9800.0,0.15008915654223698
9804.0,0.12443318342764845
9808.0,0.10012910577106086
9812.0,0.05330535733564597
9816.0,0.043231109529466086
9820.0,0.003157929702999573
9824.0,0.010454185147577962
9828.0,-0.011289563334466814
9832.0,-0.004874096558383548
9836.0,-0.013174682435048038
9840.0,0.0015097307854497195
9844.0,0.0018059196992541652
9848.0,-0.014839320774676456
9852.0,-0.025333595519718963
9856.0,0.0014982905454826315
9860.0,-0.011813412210348906
9864.0,-0.000292690511985969
9868.0,-0.012208555092740212
9872.0,-0.000747138408337339
9876.0,-0.008467466318418288
9880.0,0.0025687849267006665
9884.0,-0.003121826344731678
9888.0,0.01366896211775186
9892.0,0.014004758755451657
9896.0,0.005541700473146536
9900.0,0.0
9904.0,0.0
9908.0,0.0
9912.0,0.0
9916.0,0.0
9920.0,0.0
9924.0,0.0
9928.0,0.0
9932.0,0.0
9936.0,0.0
9940.0,0.0
9944.0,0.0
9948.0,0.0
9952.0,0.0
9956.0,0.0
9960.0,0.0
9964.0,0.0
9968.0,0.0
9972.0,0.0
9976.0,0.0
9980.0,0.0
9984.0,0.0
9988.0,0.0
9992.0,0.0
9996.0,0.0
10000.0,0.0
10004.0,0.0
10008.0,0.0
10012.0,0.0
10016.0,0.0
10020.0,0.0
10024.0,0.0
10028.0,0.0
10032.0,0.0
10036.0,0.0
10040.0,0.0
10044.0,0.0
10048.0,0.0
10052.0,0.0
10056.0,0.0
10060.0,0.0
10064.0,0.0
10068.0,0.0
10072.0,0.0
10076.0,0.0
10080.0,0.0
10084.0,0.0
10088.0,0.0
10092.0,0.0
10096.0,0.0
10100.0,-0.018168576773975903
10104.0,0.0068446828231017165
10108.0,-0.0064338325745489765
10112.0,-0.003981718096366792
10116.0,-3.134384005192337e-05
10120.0,-0.006194776022922133
10124.0,0.011016294313685749
10128.0,0.02138830822392368
10132.0,0.0026986296654901093
10136.0,0.00395498046054146
10140.0,0.00045488987661975724
10144.0,0.04799736809921909
10148.0,0.08439287558488504
10152.0,0.09643599088204109
10156.0,0.11307071658456919
10160.0,0.15524805519455195
10164.0,0.17341813937731804
10168.0,0.170743646192841
10172.0,0.18804669075612807
10176.0,0.18218609074404615
10180.0,0.2007245233275958
10184.0,0.20304573415417784
10188.0,0.17372128576621831
10192.0,0.167143495421968
10196.0,0.1414137880058931
10200.0,0.13716706600892387
10204.0,0.11237404259649049
10208.0,0.10665575598891276
10212.0,0.07243517995544586
10216.0,0.016687998558157724
10220.0,-0.005004096344455621
10224.0,-0.008144233052974301
10228.0,0.002050814944860491
10232.0,0.010412651249329998
10236.0,-0.014018476173360182
10240.0,-0.009049202095984117
10244.0,0.003542016404201474
10248.0,0.0028372324323471575
10252.0,0.01009082138145395
10256.0,-0.004604897019473241
10260.0,0.000970480322568414
10264.0,0.010823619524114312
10268.0,-0.004803214095905821
10272.0,0.002403841636352374
10276.0,0.006653927686117346
10280.0,-0.0016781765472436427
10284.0,0.0031632259739631094
10288.0,-0.005715454406713492
10292.0,0.013589550195312385
10296.0,0.020637325012579467
10300.0,0.012449726079867789
10304.0,-0.03590908075112853
10308.0,-0.09070217227687968
10312.0,-0.11263746609392711
10316.0,-0.16346830460134587
10320.0,-0.007755788704875587
10324.0,0.21002295284448938
10328.0,0.4062674186951121
10332.0,0.6088990079769614
10336.0,0.806096499016194
10340.0,0.9959614864198382
10344.0,0.8117005952463822
10348.0,0.5930273751979624
10352.0,0.3958636881415886
10356.0,0.21196544164676626
10360.0,0.014485274702344236
10364.0,-0.08915314222675857
10368.0,-0.15422941070730212
10372.0,-0.22498429147492496
10376.0,-0.2873708018589058
10380.0,-0.2311964605763729
10384.0,-0.1466955109196362
10388.0,-0.07557162636926726
10392.0,0.0030875753481225177
10396.0,0.008400080161991336
10400.0,0.004665911115231661
10404.0,0.006047875580412865
10408.0,0.007526781743819969
10412.0,0.004416574520518872
10416.0,-0.007723730335831326
10420.0,0.203856487056042
10424.0,0.20277498207715058
10428.0,0.19361341220755032
10432.0,0.20129190817136233
10436.0,0.18640847824186205
10440.0,0.20933361598759403
10444.0,0.2123649960271739
10448.0,0.18474710157861698
10452.0,0.20213041432430062
10456.0,0.20642844718767484
10460.0,0.20126505026220343
10464.0,0.21399561368627076
10468.0,0.19280800639043846
10472.0,0.21577547067818972
10476.0,0.19297914125516327
10480.0,0.19473723683132593
10484.0,0.1899992803040711
10488.0,0.1959865853704569
10492.0,0.19110090370804278
10496.0,0.1912399761263679
10500.0,0.1939933560170812
10504.0,0.030548665123264887
10508.0,0.05937845777547816
10512.0,0.09983696730471989
10516.0,0.11898500342779646
10520.0,0.15411758065000414
10524.0,0.17424669685731706
10528.0,0.20092848677732864
10532.0,0.23308576435423226
10536.0,0.2369586233939895
10540.0,0.2634399608832162
10544.0,0.27502757518355786
10548.0,0.2784194640985907
10552.0,0.2931513789390018
10556.0,0.30348306814826387
10560.0,0.29325542209254424
10564.0,0.30088979594384807
10568.0,0.2784469107241808
10572.0,0.2906161080034525
10576.0,0.270628277691818
10580.0,0.26721622125386807
10584.0,0.24251296245242143
10588.0,0.2233933262367419
10592.0,0.19823471472667645
10596.0,0.16667268991994433
10600.0,0.16815254512907973
10604.0,0.12037343068196453
10608.0,0.09157723885883615
10612.0,0.04911013189480635
10616.0,0.04587976109027288
10620.0,0.02602733990501197
10624.0,-0.01015787280213652
10628.0,0.001896541357255365
10632.0,0.013506263505580042
10636.0,0.00883090836853824
10640.0,-0.003949365451804319
10644.0,-0.011291246808689067
10648.0,-0.013666611721936783
10652.0,-0.009133038503210707
10656.0,-0.002846021969816192
10660.0,0.004537234561099512
10664.0,-0.005518736229945659
10668.0,0.0158356062997014
10672.0,0.002154202357005627
10676.0,-0.010201698527586704
10680.0,0.0032019945263510896
10684.0,-7.575451680966316e-05
10688.0,0.02769996265348275
10692.0,0.003764488565277881
10696.0,0.002161702189798827
10700.0,0.0
10704.0,0.0
10708.0,0.0
10712.0,0.0
10716.0,0.0
10720.0,0.0
10724.0,0.0
10728.0,0.0
10732.0,0.0
10736.0,0.0
10740.0,0.0
10744.0,0.0
10748.0,0.0
10752.0,0.0
10756.0,0.0
10760.0,0.0
10764.0,0.0
10768.0,0.0
10772.0,0.0
10776.0,0.0
10780.0,0.0
10784.0,0.0
10788.0,0.0
10792.0,0.0
10796.0,0.0
10800.0,0.0
10804.0,0.0
10808.0,0.0
10812.0,0.0
10816.0,0.0
10820.0,0.0
10824.0,0.0
10828.0,0.0
10832.0,0.0
10836.0,0.0
10840.0,0.0
10844.0,0.0
10848.0,0.0
10852.0,0.0
10856.0,0.0
10860.0,0.0
10864.0,0.0
10868.0,0.0
10872.0,0.0
10876.0,0.0
10880.0,0.0
10884.0,0.0
10888.0,0.0
10892.0,0.0
10896.0,0.0
10900.0,0.014967023919852392
10904.0,0.007362385679803618
10908.0,0.002423810275413396
10912.0,-0.0014030559864523435
10916.0,-0.007409818397379581
10920.0,-0.002159945008243541
10924.0,-9.353599538248589e-05
10928.0,0.01826366492061695
10932.0,-0.014561493066703419
10936.0,-0.012831542292716719
10940.0,-0.006578452779333735
10944.0,0.036552322712426054
10948.0,0.0777150939311614
10952.0,0.08679422875466399
10956.0,0.09924979776147502
10960.0,0.15977050474847387
10964.0,0.15828126555315036
10968.0,0.18233263941643202
10972.0,0.2082304264618803
10976.0,0.20154370017585957
10980.0,0.20408290984250618
10984.0,0.18815386204447068
10988.0,0.1832244423264152
10992.0,0.18561002254030928
10996.0,0.1785552785080537
11000.0,0.15623496211552823
11004.0,0.12624213911886734
11008.0,0.09049084646978696
11012.0,0.0696876908543788
11016.0,0.039873680754156246
11020.0,0.006271371138744902
11024.0,0.011191813376254123
11028.0,-0.002187775610552473
11032.0,-0.01624478496042625
11036.0,-0.017882399707747236
11040.0,-0.00947760696022434
11044.0,-0.004540700285021113
11048.0,0.008752663259609586
11052.0,-0.008886830173610794
11056.0,0.013869407433334714
11060.0,-0.009841840317006077
11064.0,-0.006541619913757984
11068.0,0.00130198065368762
11072.0,0.004156196761228671
11076.0,-0.018248131454941335
11080.0,0.0010025860014841422
11084.0,-0.016668438624105233
11088.0,0.0002715760065027441
11092.0,-0.005938754092589141
11096.0,-0.007783871062747036
11100.0,0.0071044581581332705
11104.0,-0.04359135441517033
11108.0,-0.07506297501668929
11112.0,-0.11283147828385953
11116.0,-0.16346067350323695
11120.0,0.0055201879935547786
11124.0,0.20025732290805517
11128.0,0.39097230284505313
11132.0,0.5945105451015887
11136.0,0.7914936393117514
11140.0,0.99800486173821
11144.0,0.8003276055878296
11148.0,0.6042369240989612
11152.0,0.40177451839949463
11156.0,0.19526134436569234
11160.0,-0.008382503657989216
11164.0,-0.07730625864223889
11168.0,-0.15794216093882651
11172.0,-0.22250917208133672
11176.0,-0.2910276151277344
11180.0,-0.21560059939704784
11184.0,-0.1415024331943062
11188.0,-0.08339326534100777
11192.0,-0.01972570780616335
11196.0,0.008133821321536738
11200.0,-0.000914810087108136
11204.0,-0.0030936823255776477
11208.0,-0.0028176516653884345
11212.0,-0.013199242613854873
11216.0,-0.006754849247361397
11220.0,0.2096581415466377
11224.0,0.19497468265179188
11228.0,0.19195660433908884
11232.0,0.2181885426665507
11236.0,0.21105437507861816
11240.0,0.19492875901591863
11244.0,0.20105672839809802
11248.0,0.1959631643879457
11252.0,0.20006416966606203
11256.0,0.20443728373462983
11260.0,0.2101675866918096
11264.0,0.2095343167645582
11268.0,0.20818345204106867
11272.0,0.20014833603437882
11276.0,0.22014734497642144
11280.0,0.20761201516866915
11284.0,0.1983162781112063
11288.0,0.20837361528026252
11292.0,0.2068045548474521
11296.0,0.19632301425883208
11300.0,0.19340363317535653
11304.0,0.023701126489163907
11308.0,0.06465058741103319
11312.0,0.11529754184517073
11316.0,0.12572400500657463
11320.0,0.12121595869874063
11324.0,0.18764436114067268
11328.0,0.198707881713999
11332.0,0.22056940129983627
11336.0,0.25980654842157863
11340.0,0.270366591644666
11344.0,0.2794388946294827
11348.0,0.2802831095779581
11352.0,0.3158537514813162
11356.0,0.30200612279762457
11360.0,0.2896535779815617
11364.0,0.2899781855001418
11368.0,0.28898279787258535
11372.0,0.2852446226898648
11376.0,0.2651278275784151
11380.0,0.26987445044106106
11384.0,0.22854933500471192
11388.0,0.19700032144448418
11392.0,0.20719804898560715
11396.0,0.1763918620138839
11400.0,0.15811188366068357
11404.0,0.11719949846642072
11408.0,0.09547314809471084
11412.0,0.07536790623783152
11416.0,0.02751807343113085
11420.0,0.0008401149565487536
11424.0,-0.005150720858746484
11428.0,-0.000975712617983523
11432.0,0.011269135861717447
11436.0,-0.0093196585384364
11440.0,0.0024047688959889244
11444.0,0.0021703875354349917
11448.0,0.00537190539559319
11452.0,-0.007403657918223963
11456.0,-0.009069651272012376
11460.0,0.01692108296396053
11464.0,0.0013391686284237056
11468.0,0.004703580852878775
11472.0,0.011108040825300567
11476.0,-0.0019858607709011436
11480.0,-0.01572459934870366
11484.0,-0.012305885442679985
11488.0,-0.01132349277227357
11492.0,-0.0032850297311386267
11496.0,-0.007470855341077899
11500.0,0.0
11504.0,0.0
11508.0,0.0
11512.0,0.0
11516.0,0.0
11520.0,0.0
11524.0,0.0
11528.0,0.0
11532.0,0.0
11536.0,0.0
11540.0,0.0
11544.0,0.0
11548.0,0.0
11552.0,0.0
11556.0,0.0
11560.0,0.0
11564.0,0.0
11568.0,0.0
11572.0,0.0
11576.0,0.0
11580.0,0.0
11584.0,0.0
11588.0,0.0
11592.0,0.0
11596.0,0.0
11600.0,0.0
11604.0,0.0
11608.0,0.0
11612.0,0.0
11616.0,0.0
11620.0,0.0
11624.0,0.0
11628.0,0.0
11632.0,0.0
11636.0,0.0
11640.0,0.0
11644.0,0.0
11648.0,0.0
11652.0,0.0
11656.0,0.0
11660.0,0.0
11664.0,0.0
11668.0,0.0
11672.0,0.0
11676.0,0.0
11680.0,0.0
11684.0,0.0
11688.0,0.0
11692.0,0.0
11696.0,0.0
11700.0,0.005387424780361534
11704.0,0.01221897704113447
11708.0,-0.010975616824319023
11712.0,-0.0014930332024887453
11716.0,-0.00014189107255150354
11720.0,0.011329110022157599
11724.0,-0.005599311857392418
11728.0,0.010061386283865414
11732.0,-0.006337711113702137
11736.0,-0.001204961946184034
11740.0,0.00452533589395501
11744.0,0.033923255628102666
11748.0,0.060845255561267735
11752.0,0.08733013037869658
11756.0,0.12954074353487055
11760.0,0.15329739263095685
11764.0,0.16099377981434715
11768.0,0.1916109961356785
11772.0,0.1856710665246452
11776.0,0.18101086713564993
11780.0,0.2139375492798889
11784.0,0.20796115805371412
11788.0,0.1810629411585224
11792.0,0.17909805817991337
11796.0,0.17599641205961108
11800.0,0.14899631219954507
11804.0,0.10415633299361195
11808.0,0.09833448948822648
11812.0,0.06122630836776986
11816.0,0.04712372841501557
11820.0,0.0035184753153763328
11824.0,0.00043034859795366824
11828.0,0.005103821376641513
11832.0,-0.022046498940823295
11836.0,0.019560049060908878
11840.0,-0.0017605858691666096
11844.0,0.007728373589666282
11848.0,0.011678335138323401
11852.0,0.010695506662407477
11856.0,-0.011276198890364669
11860.0,-0.00473890581031654
11864.0,-0.004986518712274157
11868.0,0.008866025969840015
11872.0,-0.0035789273728477123
11876.0,0.0030262584410449883
11880.0,-0.013759293260039322
11884.0,-0.0018353409947313363
11888.0,0.017782119321282878
11892.0,0.0070039852502535825
11896.0,0.006370633908170147
11900.0,0.013072559956477577
11904.0,-0.037455874003051594
11908.0,-0.08477919662922298
11912.0,-0.13656115501518074
11916.0,-0.161261672293587
11920.0,0.02021821938237336
11924.0,0.2045343411078035
11928.0,0.4210072736666201
11932.0,0.5956769302195942
11936.0,0.78911456968969
11940.0,0.9962246154326285
11944.0,0.7926884218728288
11948.0,0.5986326470112944
11952.0,0.39396479612383517
11956.0,0.20488360736368774
11960.0,0.0005403263965122457
11964.0,-0.0664906286328958
11968.0,-0.15192333951005077
11972.0,-0.21785986497894294
11976.0,-0.2938338350940138
11980.0,-0.22611881923216082
11984.0,-0.1438807965252798
11988.0,-0.07764116470794623
11992.0,-0.002089742983068576
11996.0,0.0053911896957659754
12000.0,0.00565327098275441
12004.0,0.014503885373297738
12008.0,0.003291658527686841
12012.0,-0.01177364662012771
12016.0,0.006924320956844616
12020.0,0.19593573007986775
12024.0,0.18836860094013883
12028.0,0.21020104733926756
12032.0,0.2126573956251886
12036.0,0.21147799250538166
12040.0,0.18877508744889412
12044.0,0.19386373083746003
12048.0,0.2114562503217476
12052.0,0.19206781447751342
12056.0,0.22199269523241694
12060.0,0.18874623174845334
12064.0,0.20210300312131357
12068.0,0.19914424456277663
12072.0,0.20374146711609067
12076.0,0.18895633620426627
12080.0,0.21294507167076143
12084.0,0.21788129879520501
12088.0,0.19812895523290397
12092.0,0.1900063642611122
12096.0,0.19921180172549524
12100.0,0.19545429041811532
12104.0,0.03737610043555557
12108.0,0.06783596222662501
12112.0,0.09262745768335708
12116.0,0.1350896001056611
12120.0,0.1369436959930161
12124.0,0.17262407859990825
12128.0,0.19476766475555282
12132.0,0.23142118233168862
12136.0,0.2337319922593261
12140.0,0.25412339560295394
12144.0,0.27048325769940046
12148.0,0.2821779338154941
12152.0,0.2869343505286202
12156.0,0.30159679112414495
12160.0,0.3103165429872149
12164.0,0.29493408251619346
12168.0,0.2877957226747903
12172.0,0.2921151959129918
12176.0,0.27598389961416125
12180.0,0.24852977481199545
12184.0,0.24639948364409267
12188.0,0.23852991122442868
12192.0,0.1891401686793059
12196.0,0.17933558686693266
12200.0,0.13082863932790817
12204.0,0.10552737782828227
12208.0,0.09251050356598506
12212.0,0.05601247262472665
12216.0,0.040686214888331504
12220.0,-0.00911133794044296
12224.0,-0.009588087637392216
12228.0,-0.0014134686449149292
12232.0,-0.00860156939087782
12236.0,-0.0022832354725762223
12240.0,0.002748113669742942
12244.0,7.997013719662957e-05
12248.0,-0.006440384278214836
12252.0,0.004364820733670959
12256.0,0.0007798933963974866
12260.0,-0.0012690746980792845
12264.0,-0.006642988513655387
12268.0,-0.01750914797911509
12272.0,-0.007671933978763245
12276.0,-0.0055012846156154895
12280.0,-0.0009786444372810658
12284.0,0.0020153405647712975
12288.0,-0.006537710346572173
12292.0,0.004625956662735887
12296.0,0.013556995395299445
12300.0,0.0
12304.0,0.0
12308.0,0.0
12312.0,0.0
12316.0,0.0
12320.0,0.0
12324.0,0.0
12328.0,0.0
12332.0,0.0
12336.0,0.0
12340.0,0.0
12344.0,0.0
12348.0,0.0
12352.0,0.0
12356.0,0.0
12360.0,0.0
12364.0,0.0
12368.0,0.0
12372.0,0.0
12376.0,0.0
12380.0,0.0
12384.0,0.0
12388.0,0.0
12392.0,0.0
12396.0,0.0
12400.0,0.0
12404.0,0.0
12408.0,0.0
12412.0,0.0
12416.0,0.0
12420.0,0.0
12424.0,0.0
12428.0,0.0
12432.0,0.0
12436.0,0.0
12440.0,0.0
12444.0,0.0
12448.0,0.0
12452.0,0.0
12456.0,0.0
12460.0,0.0
12464.0,0.0
12468.0,0.0
12472.0,0.0
12476.0,0.0
12480.0,0.0
12484.0,0.0
12488.0,0.0
12492.0,0.0
12496.0,0.0
12500.0,-0.004555627854540579
12504.0,0.007483241914184519
12508.0,-0.024124460343141765
12512.0,-0.01678423045129113
12516.0,0.006408665758152693
12520.0,-0.012763058230503837
12524.0,0.0031007068210799718
12528.0,0.003958354923860982
12532.0,0.010935846268051828
12536.0,0.0015588113922704507
12540.0,0.00944919280352257
12544.0,0.04792138485562518
12548.0,0.08129734372518312
12552.0,0.09495097868092282
12556.0,0.10944452046302994
12560.0,0.1568316587542682
12564.0,0.1499023439811012
12568.0,0.17617477829910388
12572.0,0.20902241555579038
12576.0,0.19303155285212106
12580.0,0.18342767556648207
12584.0,0.19049120199484368
12588.0,0.19029352370229077
12592.0,0.17638699286046858
12596.0,0.16542812969647738
12600.0,0.12363708130610386
12604.0,0.11953508252109504
12608.0,0.08991142580607007
12612.0,0.050666887746893055
12616.0,0.02942342230141877
12620.0,-0.006303192998441965
12624.0,0.008090614254760483
12628.0,-0.00016161344609559253
12632.0,0.0007172233900920709
12636.0,-0.01792200080473003
12640.0,0.0009055408400948842
12644.0,0.004667426104618659
12648.0,0.006772258336415021
12652.0,0.0010550091644036396
12656.0,0.008428997668731515
12660.0,-0.002173299200861848
12664.0,0.010649000849408006
12668.0,-0.01111042889508106
12672.0,-0.0026817656422176996
12676.0,0.0033952293592380872
12680.0,-0.001715046687588025
12684.0,-0.011321964971502974
12688.0,0.001041060760613984
12692.0,0.0016359267678170725
12696.0,0.01733043757025683
12700.0,0.005503642609510103
12704.0,-0.030293357791416946
12708.0,-0.07980026763135606
12712.0,-0.11466844199147505
12716.0,-0.1776861512830325
12720.0,-0.004331210122356427
12724.0,0.21284500347291777
12728.0,0.3875444436181977
12732.0,0.5876018699829553
12736.0,0.7996997614652271
12740.0,0.9910779541888645
12744.0,0.7853979043849842
12748.0,0.5897660728263376
12752.0,0.4143372798424671
12756.0,0.21359594820508965
12760.0,0.0024028165948638772
12764.0,-0.07103473839124244
12768.0,-0.15678058077849732
12772.0,-0.2104293751141421
12776.0,-0.29224131510930385
12780.0,-0.23084485738003319
12784.0,-0.1512170373688678
12788.0,-0.07234660165066216
12792.0,0.022142665702662264
12796.0,-0.011951824468353307
12800.0,0.0053743010306238
12804.0,-0.00574459006386124
12808.0,-0.0018339980446498766
12812.0,0.008094103205758669
12816.0,0.002927698124625069
12820.0,0.18804156536233385
12824.0,0.21869247276635057
12828.0,0.1642684751079199
12832.0,0.21027183570874938
12836.0,0.22350700587868114
12840.0,0.21412818679760162
12844.0,0.21700696756316704
12848.0,0.19874516469675815
12852.0,0.19792259391068728
12856.0,0.17600204126664493
12860.0,0.1951911970453433
12864.0,0.1965642894155947
12868.0,0.1942792954686133
12872.0,0.21738582801968986
12876.0,0.2022513467339331
12880.0,0.20747420850293705
12884.0,0.21099070963128597
12888.0,0.2109294517960817
12892.0,0.19440404868169758
12896.0,0.1926453391579241
12900.0,0.18787275615553997
12904.0,0.032281939304020645
12908.0,0.07035133607487412
12912.0,0.09996694219659616
12916.0,0.13670501360004655
12920.0,0.13747814120443277
12924.0,0.16902467011833314
12928.0,0.20630494632086582
12932.0,0.21506219182779346
12936.0,0.23864241531826644
12940.0,0.2811837380086339
12944.0,0.2788028176940463
12948.0,0.284367413018006
12952.0,0.2996474747505035
12956.0,0.3058326731913146
12960.0,0.2806284729195046
12964.0,0.29054380739807883
12968.0,0.280471073424216
12972.0,0.2673999528795968
12976.0,0.28236081227089843
12980.0,0.2620244491679816
12984.0,0.2462087012375774
12988.0,0.22895512116459849
12992.0,0.2087081727374737
12996.0,0.1670776852355357
13000.0,0.1572256260518686
13004.0,0.11406092306165275
13008.0,0.09099305700687525
13012.0,0.07918031686300006
13016.0,0.018585865126029694
13020.0,0.003976712995141184
13024.0,-0.007272492640468895
13028.0,0.009897003203709058
13032.0,0.0079095687749745
13036.0,-0.0002724125777853963
13040.0,0.02117263623092356
13044.0,0.009532841028777316
13048.0,0.0007194627389933176
13052.0,-0.004340991472494919
13056.0,-0.014945067663604162
13060.0,0.004284683654248659
13064.0,0.005610707345121817
13068.0,-0.002021318605507703
13072.0,-0.0020919986171688996
13076.0,0.0034075625016366357
13080.0,0.001201972334136764
13084.0,-0.004379593449144759
13088.0,-0.016206057024860852
13092.0,0.023128155332206385
13096.0,-0.006656732206579961
13100.0,0.0
13104.0,0.0
13108.0,0.0
13112.0,0.0
13116.0,0.0
13120.0,0.0
13124.0,0.0
13128.0,0.0
13132.0,0.0
13136.0,0.0
13140.0,0.0
13144.0,0.0
13148.0,0.0
13152.0,0.0
13156.0,0.0
13160.0,0.0
13164.0,0.0
13168.0,0.0
13172.0,0.0
13176.0,0.0
13180.0,0.0
13184.0,0.0
13188.0,0.0
13192.0,0.0
13196.0,0.0
13200.0,0.0
13204.0,0.0
13208.0,0.0
13212.0,0.0
13216.0,0.0
13220.0,0.0
13224.0,0.0
13228.0,0.0
13232.0,0.0
13236.0,0.0
13240.0,0.0
13244.0,0.0
13248.0,0.0
13252.0,0.0
13256.0,0.0
13260.0,0.0
13264.0,0.0
13268.0,0.0
13272.0,0.0
13276.0,0.0
13280.0,0.0
13284.0,0.0
13288.0,0.0
13292.0,0.0
13296.0,0.0
13300.0,-0.0004997018084024448
13304.0,0.022043780201535013
13308.0,-0.003585678450636313
13312.0,-0.004438979965014856
13316.0,0.0037785201367369595
13320.0,-0.007658689608509808
13324.0,-0.013227553707163145
13328.0,-0.0031134358788136663
13332.0,0.022749049598311588
13336.0,-0.00022365494396180713
13340.0,0.0025074382395594424
13344.0,0.005701728597733234
13348.0,0.06743019629490933
13352.0,0.09340537638977905
13356.0,0.11731272361071308
13360.0,0.15267841950031635
13364.0,0.1424694112001669
13368.0,0.17181413512242755
13372.0,0.18881264494702363
13376.0,0.1927731475657487
13380.0,0.19408804628679396
13384.0,0.19974901358970054
13388.0,0.20831839994276682
13392.0,0.16929505742111325
13396.0,0.16492861877434856
13400.0,0.14975223778032876
13404.0,0.10584473786537653
13408.0,0.07957103690184736
13412.0,0.05777391748682272
13416.0,0.028907600754064833
13420.0,-0.005167987209842695
13424.0,0.017735921048208026
13428.0,0.008642540019770623
13432.0,0.0036214132186010058
13436.0,-0.0036609728240271783
13440.0,0.009902902828555847
13444.0,0.009349745191430373
13448.0,0.005382160274738598
13452.0,-0.011424409164312666
13456.0,0.00600605473321817
13460.0,0.011105355361612416
13464.0,0.009329786778992256
13468.0,-0.006010802165220426
13472.0,0.008978317681339956
13476.0,0.007177851807056627
13480.0,0.0071500368675427054
13484.0,-0.0028621069646771542
13488.0,0.000278629752599243
13492.0,0.003645128036165151
13496.0,-0.014016237283406039
13500.0,0.012156791564559677
13504.0,-0.051070292639347675
13508.0,-0.08674761748483514
13512.0,-0.11172547446008915
13516.0,-0.18539413145343864
13520.0,0.007669497818301253
13524.0,0.21001433086858384
13528.0,0.397025089055013
13532.0,0.5971580130730115
13536.0,0.8084513028234779
13540.0,0.9885228886405671
13544.0,0.8094316262616463
13548.0,0.5980935970273427
13552.0,0.4021559947146849
13556.0,0.19450190588657307
13560.0,0.011525719620407611
13564.0,-0.08363406108895974
13568.0,-0.15008801388709844
13572.0,-0.2196325713736429
13576.0,-0.32685432071649195
13580.0,-0.21884108654919368
13584.0,-0.139605789630503
13588.0,-0.06934115386773983
13592.0,-0.01722528293678263
13596.0,0.007008221091143489
13600.0,0.004113178530260189
13604.0,-0.0078013819098873925
13608.0,-0.012025167139518922
13612.0,-0.009005114588357958
13616.0,-0.0045715141141839345
13620.0,0.21308150601440556
13624.0,0.19915103883038085
13628.0,0.20640047656419377
13632.0,0.18213628673955926
13636.0,0.21162214483801903
13640.0,0.20962210037440585
13644.0,0.1930981847145569
13648.0,0.2086602969806078
13652.0,0.2000385472966859
13656.0,0.2105787001200056
13660.0,0.19876091187599457
13664.0,0.20336532864657175
13668.0,0.19954267513497911
13672.0,0.20949299606758326
13676.0,0.20694518535467848
13680.0,0.20504241684133784
13684.0,0.18459926454067613
13688.0,0.18636328458402543
13692.0,0.21203228746403308
13696.0,0.1984739788414779
13700.0,0.19426481916373503
13704.0,0.0354651308325866
13708.0,0.05331457935930714
13712.0,0.09561260179663998
13716.0,0.1286936493212083
13720.0,0.14518172049362535
13724.0,0.1619497396871411
13728.0,0.18662946324330285
13732.0,0.22204195130064472
13736.0,0.2461773972216059
13740.0,0.2520787896130747
13744.0,0.26126330200107967
13748.0,0.29023353672998703
13752.0,0.2873539858990449
13756.0,0.30155139715093926
13760.0,0.2863586681517382
13764.0,0.3269576719829964
13768.0,0.28610479906173675
13772.0,0.2731678127332885
13776.0,0.267260067252879
13780.0,0.24676886073109933
13784.0,0.2398678778118383
13788.0,0.2249519494435169
13792.0,0.20801488174962351
13796.0,0.18230983768964334
13800.0,0.16949819732270416
13804.0,0.13200141509255445
13808.0,0.0952160208820469
13812.0,0.07424454046617919
13816.0,0.036207689454404286
13820.0,-0.00027997594965550074
13824.0,-0.001659653612618715
13828.0,-0.0031618743377412875
13832.0,0.0004441822716227915
13836.0,-0.0042721057136796935
13840.0,-0.00584696924757562
13844.0,-0.011614753053339569
13848.0,0.0017055471324291843
13852.0,0.00956535674953558
13856.0,0.01082190876095276
13860.0,0.01407042257044655
13864.0,-0.008049323580137841
13868.0,-0.03830267812813935
13872.0,-0.005600771861096231
13876.0,-0.006988199647782799
13880.0,0.01835217466969832
13884.0,-0.0013895289482561152
13888.0,0.007386788320446256
13892.0,-0.014014004295511922
13896.0,0.005021259833515005
13900.0,0.0
13904.0,0.0
13908.0,0.0
13912.0,0.0
13916.0,0.0
13920.0,0.0
13924.0,0.0
13928.0,0.0
13932.0,0.0
13936.0,0.0
13940.0,0.0
13944.0,0.0
13948.0,0.0
13952.0,0.0
13956.0,0.0
13960.0,0.0
13964.0,0.0
13968.0,0.0
13972.0,0.0
13976.0,0.0
13980.0,0.0
13984.0,0.0
13988.0,0.0
13992.0,0.0
13996.0,0.0
14000.0,0.0
14004.0,0.0
14008.0,0.0
14012.0,0.0
14016.0,0.0
14020.0,0.0
14024.0,0.0
14028.0,0.0
14032.0,0.0
14036.0,0.0
14040.0,0.0
14044.0,0.0
14048.0,0.0
14052.0,0.0
14056.0,0.0
14060.0,0.0
14064.0,0.0
14068.0,0.0
14072.0,0.0
14076.0,0.0
14080.0,0.0
14084.0,0.0
14088.0,0.0
14092.0,0.0
14096.0,0.0
14100.0,0.009062422285214717
14104.0,-0.005809902464085233
14108.0,-0.015528871737495288
14112.0,-0.0012383939909352652
14116.0,0.0007872669964219671
14120.0,-0.004754535221990528
14124.0,-0.009396346153748316
14128.0,0.012059371115287904
14132.0,0.0027490820908963203
14136.0,-0.0033251315156614886
14140.0,-0.0008237323974348102
14144.0,0.05193965424184285
14148.0,0.054863231073623654
14152.0,0.08415193515668776
14156.0,0.11513771120940812
14160.0,0.14537632584762616
14164.0,0.14666082111207226
14168.0,0.18692480332559241
14172.0,0.17603200849399162
14176.0,0.19124349172529095
14180.0,0.1957976236409548
14184.0,0.18130075313593152
14188.0,0.1971781783393444
14192.0,0.17564331186039112
14196.0,0.18606665970460076
14200.0,0.1290904558527614
14204.0,0.13517575156026695
14208.0,0.10130629723247615
14212.0,0.07389793183509248
14216.0,0.035537626804187136
14220.0,-0.0024186399169894134
14224.0,0.01828995130720988
14228.0,0.01645944403969655
14232.0,-0.006705696090895146
14236.0,-0.0009899824454039727
14240.0,0.008365383975956929
14244.0,-0.0018117574318155896
14248.0,-0.006123439390482242
14252.0,-0.01548289396815066
14256.0,0.014439092306152576
14260.0,-0.006976976775343592
14264.0,-0.010370511030288654
14268.0,-0.0018744033039765026
14272.0,-0.0018330119119183805
14276.0,-0.004454326367956513
14280.0,-0.020326802004052517
14284.0,0.005554732060291258
14288.0,-0.011227894223241575
14292.0,-0.005139174900822995
14296.0,-0.012161263522866955
14300.0,-0.009708240942241835
14304.0,-0.026783123103798115
14308.0,-0.08182385082213312
14312.0,-0.10943797832140938
14316.0,-0.16185475765866167
14320.0,-0.016219524582625666
14324.0,0.21839902266716243
14328.0,0.3886702382230726
14332.0,0.6012831739548002
14336.0,0.7698375388132067
14340.0,0.9922435074236932
14344.0,0.7959220387600194
14348.0,0.602062913636179
14352.0,0.39746193490791143
14356.0,0.1950879016930853
14360.0,0.01666773157094775
14364.0,-0.08509844736836301
14368.0,-0.14086545304392123
14372.0,-0.215745506305525
14376.0,-0.3089567548485974
14380.0,-0.22258064241905423
14384.0,-0.1525421851927176
14388.0,-0.06857895934865249
14392.0,0.009140477836361781
14396.0,-0.007148687219431064
14400.0,-0.006106710689530617
14404.0,0.005676245201923427
14408.0,0.0009570965285133068
14412.0,-0.00598209767047325
14416.0,0.010166572111353007
14420.0,0.19509761610841217
14424.0,0.209978493489975
14428.0,0.19121724057804645
14432.0,0.20611432557779583
14436.0,0.19211153336275666
14440.0,0.21449485342565663
14444.0,0.19934963398613248
14448.0,0.197654822971199
14452.0,0.20996863895718726
14456.0,0.1849421462183093
14460.0,0.17787826795445347
14464.0,0.1884690827485446
14468.0,0.20557968425308773
14472.0,0.19364942886411773
14476.0,0.1946376769724621
14480.0,0.19990383026988726
14484.0,0.21588455072553436
14488.0,0.20681099390228633
14492.0,0.20726336195609746
14496.0,0.20057276284191866
14500.0,0.18826562743804817
14504.0,0.01764048693317541
14508.0,0.06164613519120351
14512.0,0.1036925085382585
14516.0,0.13995131875646166
14520.0,0.1477817813416623
14524.0,0.17867294976307369
14528.0,0.19904858030893013
14532.0,0.237177442931736
14536.0,0.25431142884398766
14540.0,0.25627522055796076
14544.0,0.2713501640963408
14548.0,0.279561378834412
14552.0,0.2949837022562896
14556.0,0.3043312299567182
14560.0,0.3061226886190445
14564.0,0.30968800441638084
14568.0,0.2967592226033869
14572.0,0.28015178465719215
14576.0,0.27540062259343495
14580.0,0.2610452064584678
14584.0,0.23991113643402823
14588.0,0.2176083947238403
14592.0,0.19030667773105078
14596.0,0.199179303616506
14600.0,0.14560126741129453
14604.0,0.11800238912018468
14608.0,0.08900489366874484
14612.0,0.05327725267096589
14616.0,0.0303658257913932
14620.0,-0.007836331114277157
14624.0,-0.0039458573117938395
14628.0,-0.011147673822804927
14632.0,0.0012111732237576633
14636.0,0.005927702213667336
14640.0,-0.004295378056213409
14644.0,-0.005738608717091804
14648.0,-0.02152301823148616
14652.0,-0.0025561436337937747
14656.0,0.005833690164583535
14660.0,-0.010888949748553792
14664.0,-0.013159035625608247
14668.0,0.00815844929511945
14672.0,-0.010892236173973606
14676.0,0.00030559841859490003
14680.0,0.004705745685188259
14684.0,-0.009446468495986278
14688.0,-0.007619587541818584
14692.0,-0.005968738822627138
14696.0,-0.0010746610848609405
14700.0,0.0
14704.0,0.0
14708.0,0.0
14712.0,0.0
14716.0,0.0
14720.0,0.0
14724.0,0.0
14728.0,0.0
14732.0,0.0
14736.0,0.0
14740.0,0.0
14744.0,0.0
14748.0,0.0
14752.0,0.0
14756.0,0.0
14760.0,0.0
14764.0,0.0
14768.0,0.0
14772.0,0.0
14776.0,0.0
14780.0,0.0
14784.0,0.0
14788.0,0.0
14792.0,0.0
14796.0,0.0
14800.0,0.0
14804.0,0.0
14808.0,0.0
14812.0,0.0
14816.0,0.0
14820.0,0.0
14824.0,0.0
14828.0,0.0
14832.0,0.0
14836.0,0.0
14840.0,0.0
14844.0,0.0
14848.0,0.0
14852.0,0.0
14856.0,0.0
14860.0,0.0
14864.0,0.0
14868.0,0.0
14872.0,0.0
14876.0,0.0
14880.0,0.0
14884.0,0.0
14888.0,0.0
14892.0,0.0
14896.0,0.0
14900.0,-0.027617484018617914
14904.0,-0.006379041499887388
14908.0,-0.014301092988167886
14912.0,0.0021408249498887227
14916.0,0.001281880778703553
14920.0,0.00448837928284976
14924.0,0.001925153706192328
14928.0,0.0011154062492280392
14932.0,-0.00045513309921393013
14936.0,0.0026744459774739617
14940.0,0.016191207004106464
14944.0,0.024240859048119727
14948.0,0.06563286610932526
14952.0,0.10223994524347804
14956.0,0.1078688236131452
14960.0,0.13963009963025966
14964.0,0.16882800929159447
14968.0,0.17997601732301297
14972.0,0.18659263615846336
14976.0,0.20300303309396403
14980.0,0.1977573764626908
14984.0,0.19674951999962145
14988.0,0.17679648162968234
14992.0,0.16952960055462263
14996.0,0.15778479676187
15000.0,0.13086014342353916
15004.0,0.13640300474204597
15008.0,0.0888988676646368
15012.0,0.06612151618767702
15016.0,0.04620511535261885
15020.0,-0.0018166978030254711
15024.0,-0.01817949237314835
15028.0,-0.007553056755251822
15032.0,0.009476774616652297
15036.0,0.015936747512278023
15040.0,0.01262950466260581
15044.0,0.0024919440081530575
15048.0,0.009605701420346049
15052.0,-0.003322880247145284
15056.0,0.012596378355184533
15060.0,0.025831270037047955
15064.0,-0.008781090754233455
15068.0,-0.010575006428026605
15072.0,-0.003772595470530793
15076.0,0.01116282025114849
15080.0,-0.0028694609681804957
15084.0,0.003317529383274687
15088.0,-0.007277161338083875
15092.0,0.0011623516088917398
15096.0,0.011634911653922242
15100.0,-0.011918072853004598
15104.0,-0.055425842499987624
15108.0,-0.07687590828948077
15112.0,-0.12585604699181785
15116.0,-0.1553614467195274
15120.0,0.017818974705990902
15124.0,0.18537067798031093
15128.0,0.4018873156797912
15132.0,0.5938420759746529
15136.0,0.7885765661156843
15140.0,0.9963796909720867
15144.0,0.7962136558530529
15148.0,0.6027811884675165
15152.0,0.38233790622626784
15156.0,0.18487740612819473
15160.0,-0.007828069064198102
15164.0,-0.09161031783408316
15168.0,-0.1533753618883509
15172.0,-0.21448606886636254
15176.0,-0.2807233436893609
15180.0,-0.23888180791601457
15184.0,-0.15046836510673217
15188.0,-0.05947431753956564
15192.0,-0.003470176663672913
15196.0,0.0074782160873123685
15200.0,0.007104033035751696
15204.0,0.012812172039815255
15208.0,0.01401615392111273
15212.0,-0.0013005918838473092
15216.0,0.001772460504257742
15220.0,0.19213267930468833
15224.0,0.19158981489440305
15228.0,0.19595153828447814
15232.0,0.17860269968778164
15236.0,0.193394265101593
15240.0,0.2044792706838866
15244.0,0.21268140622881357
15248.0,0.20840729291305776
15252.0,0.19788923860900529
15256.0,0.21649698639691703
15260.0,0.21507549555312724
15264.0,0.20378507046638192
15268.0,0.20667308452381916
15272.0,0.21565376609891784
15276.0,0.19176430045255033
15280.0,0.19600401082320576
15284.0,0.18056038153899462
15288.0,0.20108955438000156
15292.0,0.22309407791663594
15296.0,0.21168020225832387
15300.0,0.19002797352115983
15304.0,0.035816449774768826
15308.0,0.05166866921666292
15312.0,0.09666785399328202
15316.0,0.10934976071537858
15320.0,0.1487182741490401
15324.0,0.17745232333839592
15328.0,0.2000997457529744
15332.0,0.2335463532497276
15336.0,0.24528702130383473
15340.0,0.26696367678507354
15344.0,0.27677181841615994
15348.0,0.28393222756297526
15352.0,0.3024858799317072
15356.0,0.3031274339938976
15360.0,0.28997070659316543
15364.0,0.29525455023160196
15368.0,0.29366365863682126
15372.0,0.2864619593264886
15376.0,0.2685099008664527
15380.0,0.2641871551420346
15384.0,0.24336147943320122
15388.0,0.2181599935220355
15392.0,0.2120950160769134
15396.0,0.17300040919269702
15400.0,0.1447388356588942
15404.0,0.11902286548699788
15408.0,0.09689863213221073
15412.0,0.06142904823113921
15416.0,0.03726380348772259
15420.0,-0.014696225930224682
15424.0,0.003539922011779733
15428.0,0.0006461856604002825
15432.0,-0.018090989338660556
15436.0,-0.006464091673807319
15440.0,0.011889573202596258
15444.0,0.0064101391196369085
15448.0,0.0031875724061340405
15452.0,-0.006187957092419006
15456.0,-0.02439019267238365
15460.0,-0.02249058420365934
15464.0,0.01257344576029448
15468.0,-0.012722945754650966
15472.0,0.0016762194791284557
15476.0,0.008630289851333036
15480.0,-0.012254640977661577
15484.0,-0.00035622048057402147
15488.0,-0.010782577334965342
15492.0,0.006221541907309597
15496.0,0.009599453303494446
15500.0,0.0
15504.0,0.0
15508.0,0.0
15512.0,0.0
15516.0,0.0
15520.0,0.0
15524.0,0.0
15528.0,0.0
15532.0,0.0
15536.0,0.0
15540.0,0.0
15544.0,0.0
15548.0,0.0
15552.0,0.0
15556.0,0.0
15560.0,0.0
15564.0,0.0
15568.0,0.0
15572.0,0.0
15576.0,0.0
15580.0,0.0
15584.0,0.0
15588.0,0.0
15592.0,0.0
15596.0,0.0
15600.0,0.0
15604.0,0.0
15608.0,0.0
15612.0,0.0
15616.0,0.0
15620.0,0.0
15624.0,0.0
15628.0,0.0
15632.0,0.0
15636.0,0.0
15640.0,0.0
15644.0,0.0
15648.0,0.0
15652.0,0.0
15656.0,0.0
15660.0,0.0
15664.0,0.0
15668.0,0.0
15672.0,0.0
15676.0,0.0
15680.0,0.0
15684.0,0.0
15688.0,0.0
15692.0,0.0
15696.0,0.0
15700.0,0.004550342015536877
15704.0,0.009054965424131926
15708.0,-0.004026884848598579
15712.0,0.00022974529368683218
15716.0,-0.00028389845263442835
15720.0,-0.002827565708726879
15724.0,-0.00804894744658852
15728.0,-0.007412721607291548
15732.0,0.004607171683150627
15736.0,-0.002509593478283691
15740.0,-0.0037379188498146186
15744.0,0.01617277898604891
15748.0,0.048851181952555674
15752.0,0.09767441052320971
15756.0,0.12012506871333692
15760.0,0.1535041278939602
15764.0,0.15393173393212306
15768.0,0.17124197160298188
15772.0,0.19454859244927383
15776.0,0.20095156684111706
15780.0,0.1952192536171916
15784.0,0.19000858365769943
15788.0,0.16603709783468465
15792.0,0.170609747939124
15796.0,0.17097236273178773
15800.0,0.14367417822984055
15804.0,0.11192410195789881
15808.0,0.08485642170250454
15812.0,0.07040346675539846
15816.0,0.029167938171099476
15820.0,0.012408429183693155
15824.0,-0.011848110083199293
15828.0,-0.009774107842712992
15832.0,0.00029353755097356947
15836.0,-0.007950728499654206
15840.0,-0.008316562874670235
15844.0,0.014750006505995073
15848.0,-0.004164915961040993
15852.0,-0.004137062031151127
15856.0,0.011213244977642076
15860.0,-0.02236221474840557
15864.0,-0.00025300096602001764
15868.0,-0.012254361802745842
15872.0,-0.00506466994113418
15876.0,0.006272393127642945
15880.0,0.004239586026477521
15884.0,0.019852113299951447
15888.0,-0.01092628270608712
15892.0,0.0015990692424966593
15896.0,-0.013584804842022277
15900.0,-0.01518306757680185
15904.0,-0.042573690067416806
15908.0,-0.07850420503362034
15912.0,-0.09648632711375127
15916.0,-0.16535868800572404
15920.0,-0.0017853595901146941
15924.0,0.20865408788236423
15928.0,0.4154178684024092
15932.0,0.5985157190603334
15936.0,0.8019105842375718
15940.0,0.9959759713943676
15944.0,0.7711381302739256
15948.0,0.5901278227740773
15952.0,0.40681387346955905
15956.0,0.18661801322927773
15960.0,0.005335436659990689
15964.0,-0.06541480076450974
15968.0,-0.16729033243280375
15972.0,-0.22525469927220063
15976.0,-0.2864557623719607
15980.0,-0.23251920597224873
15984.0,-0.12379715162416491
15988.0,-0.07337306984278287
15992.0,0.014951707889619335
15996.0,-0.003378249361436769
16000.0,0.012694363136811486
16004.0,-0.011218436658425777
16008.0,0.011646135122368092
16012.0,0.0026255470426333515
16016.0,0.00991816547527402
16020.0,0.1862629618555354
16024.0,0.20260085203187647
16028.0,0.2060598553896701
16032.0,0.1935078486088111
16036.0,0.19751897990867268
16040.0,0.1949456947814022
16044.0,0.20064929087245298
16048.0,0.18934538618521346
16052.0,0.1747817872005226
16056.0,0.22692430944842418
16060.0,0.1976100764169651
16064.0,0.21046916486836473
16068.0,0.19267417695600086
16072.0,0.21616244772638454
16076.0,0.189197670661015
16080.0,0.19212437248308728
16084.0,0.18989808584740744
16088.0,0.18149167695446367
16092.0,0.21535706581287056
16096.0,0.19564756565803212
16100.0,0.20059214698856745
16104.0,0.02983730314964274
16108.0,0.05895260788131886
16112.0,0.0996862136670027
16116.0,0.11103438480036827
16120.0,0.16149344745353456
16124.0,0.18086980997123833
16128.0,0.1922252244768714
16132.0,0.2108063475049684
16136.0,0.2393424300542209
16140.0,0.24886859015436938
16144.0,0.2815407809648103
16148.0,0.2871211584179287
16152.0,0.29563383521081943
16156.0,0.3092129165374975
16160.0,0.2880001238188513
16164.0,0.29752129358530793
16168.0,0.28009437579750895
16172.0,0.27889466639746746
16176.0,0.2794141401100185
16180.0,0.2637271526457677
16184.0,0.2421077220066
16188.0,0.2008215019040424
16192.0,0.18267026697918154
16196.0,0.16973227699529736
16200.0,0.15143112078510954
16204.0,0.12909824220638705
16208.0,0.09624880090093908
16212.0,0.04842128773052138
16216.0,0.036099409678602486
16220.0,-0.00808542669865023
16224.0,-0.011507781393931328
16228.0,0.005673306312370079
16232.0,-0.0004089048271630758
16236.0,0.002678036766996124
16240.0,0.008415600260509238
16244.0,-0.009314594133509522
16248.0,0.0029937233448782906
16252.0,0.0017962303486255397
16256.0,0.0065318240200895
16260.0,0.014738667760991484
16264.0,-0.0028406241725933753
16268.0,0.00615646106565001
16272.0,0.004282159438370305
16276.0,-0.01405159047333578
16280.0,-0.010447471660278177
16284.0,0.012538418617748627
16288.0,-0.006095267348064171
16292.0,0.006298030341643424
16296.0,0.006130163784940867
16300.0,0.0
16304.0,0.0
16308.0,0.0
16312.0,0.0
16316.0,0.0
16320.0,0.0
16324.0,0.0
16328.0,0.0
16332.0,0.0
16336.0,0.0
16340.0,0.0
16344.0,0.0
16348.0,0.0
16352.0,0.0
16356.0,0.0
16360.0,0.0
16364.0,0.0
16368.0,0.0
16372.0,0.0
16376.0,0.0
16380.0,0.0
16384.0,0.0
16388.0,0.0
16392.0,0.0
16396.0,0.0
16400.0,0.0
16404.0,0.0
16408.0,0.0
16412.0,0.0
16416.0,0.0
16420.0,0.0
16424.0,0.0
16428.0,0.0
16432.0,0.0
16436.0,0.0
16440.0,0.0
16444.0,0.0
16448.0,0.0
16452.0,0.0
16456.0,0.0
16460.0,0.0
16464.0,0.0
16468.0,0.0
16472.0,0.0
16476.0,0.0
16480.0,0.0
16484.0,0.0
16488.0,0.0
16492.0,0.0
16496.0,0.0
16500.0,0.0006866720720367396
16504.0,0.02303952558412367
16508.0,0.00603428174481369
16512.0,0.014508566534969788
16516.0,0.0061497479991800205
16520.0,-0.0070975906643793866
16524.0,-0.006772639904273884
16528.0,0.0075009832721848685
16532.0,-0.005038381132843729
16536.0,-0.010110689743301362
16540.0,-0.0038464241544463916
16544.0,0.047834082399127294
16548.0,0.04769031165634671
16552.0,0.10116188912203578
16556.0,0.11605231653170686
16560.0,0.15432293262365138
16564.0,0.16119429666821775
16568.0,0.16063194850849782
16572.0,0.18422259310829472
16576.0,0.19285016007323846
16580.0,0.17756852008432142
16584.0,0.2216217970293816
16588.0,0.18350399868537529
16592.0,0.17618623403266817
16596.0,0.1395405528648948
16600.0,0.1287141199412581
16604.0,0.10173989213302542
16608.0,0.08874879091029127
16612.0,0.06310146908403626
16616.0,0.03734112379758128
16620.0,0.008448435589242038
16624.0,0.024945676412294088
16628.0,-0.01579760976833152
16632.0,-0.003470785757233576
16636.0,-0.013884496937386678
16640.0,-0.0018948094591463667
16644.0,0.005056919915417846
16648.0,0.0071238187138153945
16652.0,-0.003922578908940798
16656.0,-0.01187712197511981
16660.0,-0.014112309978258915
16664.0,0.010129082333364951
16668.0,-0.015161625617673103
16672.0,-0.002337460139267973
16676.0,-0.0031372448478973283
16680.0,-0.011529068708747368
16684.0,-0.006008443400644806
16688.0,0.008314576603462482
16692.0,0.004849963961113997
16696.0,-0.002031356284966862
16700.0,0.002105408693373061
16704.0,-0.04174762828174757
16708.0,-0.08192056744171998
16712.0,-0.12887700909900848
16716.0,-0.16165294215272694
16720.0,-0.002923841970668685
16724.0,0.2027598955426229
16728.0,0.41364989241638717
16732.0,0.5821766319394325
16736.0,0.8099212113844279
16740.0,0.9963508315483321
16744.0,0.7914197998709601
16748.0,0.588353490225084
16752.0,0.4098393200082392
16756.0,0.20629354889200374
16760.0,-0.010704051309502402
16764.0,-0.06436812973186463
16768.0,-0.16142123410898354
16772.0,-0.22713717441020775
16776.0,-0.2960722529379287
16780.0,-0.22181048355155458
16784.0,-0.16161160793908017
16788.0,-0.07870615620543579
16792.0,0.004477394670451879
16796.0,-0.0024505197533435806
16800.0,-0.004659913866146989
16804.0,0.0022201459997685845
16808.0,0.004603868874715149
16812.0,-0.00015600321026880258
16816.0,0.007876098589430698
16820.0,0.18710231676619965
16824.0,0.20155862445988723
16828.0,0.21479339860687566
16832.0,0.20699061404930996
16836.0,0.19182858868646946
16840.0,0.20728712108807282
16844.0,0.18661777565351698
16848.0,0.19664571125610708
16852.0,0.19890169081050674
16856.0,0.1995396538538507
16860.0,0.1964781140701348
16864.0,0.2069001605364469
16868.0,0.19976348008770498
16872.0,0.198712674418957
16876.0,0.2078091634194169
16880.0,0.2025718189716793
16884.0,0.19970303612187185
16888.0,0.19399422022374288
16892.0,0.19015711466572446
16896.0,0.1889292116345275
16900.0,0.19755128094474192
16904.0,0.033584036383762755
16908.0,0.05253863221044115
16912.0,0.08520933426554957
16916.0,0.1191599110250276
16920.0,0.16072763469091733
16924.0,0.18587312471881215
16928.0,0.22625390222053635
16932.0,0.20805701346742664
16936.0,0.2515810162662986
16940.0,0.24182840827591828
16944.0,0.27926432248169464
16948.0,0.27814118182636843
16952.0,0.3006094559823965
16956.0,0.3036400448034703
16960.0,0.2889168013183908
16964.0,0.31307477375903947
16968.0,0.29586753284862516
16972.0,0.2837012251488897
16976.0,0.2812700548960411
16980.0,0.26538747582459243
16984.0,0.2333306553617537
16988.0,0.22450332711779925
16992.0,0.2149046341643851
16996.0,0.16936483513697334
17000.0,0.1532614348251441
17004.0,0.11415649367221013
17008.0,0.09660238735843149
17012.0,0.056430285011259365
17016.0,0.025063555746641278
17020.0,-0.007795333236293836
17024.0,0.00194995174155307
17028.0,-0.0036635678719167874
17032.0,0.010073036996532314
17036.0,0.02030527237152583
17040.0,0.007628777487717507
17044.0,-0.0014265566147649404
17048.0,-0.003927282690742825
17052.0,0.004806877308087108
17056.0,-0.0014924381217792154
17060.0,-0.005435323729060633
17064.0,-0.006301894630209304
17068.0,-0.005318529453188801
17072.0,-0.0007414956969114004
17076.0,-0.008854607527836303
17080.0,0.002650257412770658
17084.0,0.007071836175121281
17088.0,0.004810315179342889
17092.0,0.01009894816905011
17096.0,-0.00550357260932817
17100.0,0.0
17104.0,0.0
17108.0,0.0
17112.0,0.0
17116.0,0.0
17120.0,0.0
17124.0,0.0
17128.0,0.0
17132.0,0.0
17136.0,0.0
17140.0,0.0
17144.0,0.0
17148.0,0.0
17152.0,0.0
17156.0,0.0
17160.0,0.0
17164.0,0.0
17168.0,0.0
17172.0,0.0
17176.0,0.0
17180.0,0.0
17184.0,0.0
17188.0,0.0
17192.0,0.0
17196.0,0.0
17200.0,0.0
17204.0,0.0
17208.0,0.0
17212.0,0.0
17216.0,0.0
17220.0,0.0
17224.0,0.0
17228.0,0.0
17232.0,0.0
17236.0,0.0
17240.0,0.0
17244.0,0.0
17248.0,0.0
17252.0,0.0
17256.0,0.0
17260.0,0.0
17264.0,0.0
17268.0,0.0
17272.0,0.0
17276.0,0.0
17280.0,0.0
17284.0,0.0
17288.0,0.0
17292.0,0.0
17296.0,0.0
17300.0,-0.003839366713743939
17304.0,-0.016544315986249107
17308.0,-0.018987772545630867
17312.0,-0.007782292762449686
17316.0,0.015810284469622463
17320.0,-0.010009756499546633
17324.0,0.0011761515963733984
17328.0,-0.000805585820456899
17332.0,0.0068196668614672485
17336.0,-0.0006544032481730062
17340.0,0.006994405014858469
17344.0,0.03249181495570703
17348.0,0.06901884034919534
17352.0,0.1078230884671748
17356.0,0.12719804789080963
17360.0,0.16170477874691916
17364.0,0.16412486059774153
17368.0,0.1759577019893614
17372.0,0.19684591790723943
17376.0,0.21570555498865726
17380.0,0.18969961304657615
17384.0,0.1959501499118246
17388.0,0.18914219009138153
17392.0,0.19194215352476265
17396.0,0.16157605844808998
17400.0,0.15524642713436976
17404.0,0.10927813747157379
17408.0,0.07444439937046798
17412.0,0.05978347441634593
17416.0,0.05409407851460259
17420.0,0.01075866773298123
17424.0,0.009255031584223703
17428.0,0.0035297812995755858
17432.0,-0.015502083529379299
17436.0,-0.010300611188683478
17440.0,0.009805226780451697
17444.0,-0.007657958525130701
17448.0,-0.009641162924273644
17452.0,-0.0046368853621428984
17456.0,-0.003085573173153065
17460.0,-0.018305040515645642
17464.0,-0.002665554309658628
17468.0,0.004487067918209661
17472.0,0.015705972307700232
17476.0,-0.002424582162992784
17480.0,0.014461209647286208
17484.0,-0.006784992110447973
17488.0,-0.004837726844291308
17492.0,-0.003986208976775346
17496.0,0.00023626230266809566
17500.0,-0.011976601494010655
17504.0,-0.05422119492895072
17508.0,-0.07716240557892662
17512.0,-0.1333443148681545
17516.0,-0.16729267932252934
17520.0,-0.007445679578064239
17524.0,0.18952180534731275
17528.0,0.3823176454988075
17532.0,0.605804630496929
17536.0,0.7887588258632485
17540.0,0.9956166734751747
17544.0,0.7838467774727073
17548.0,0.5994604650372439
17552.0,0.39534164142853556
17556.0,0.19798177717649376
17560.0,0.0002446852390644811
17564.0,-0.08206480924253917
17568.0,-0.15879421945310543
17572.0,-0.2210296564896456
17576.0,-0.3178418874965664
17580.0,-0.2245501785540608
17584.0,-0.15090862835532126
17588.0,-0.07370564691352977
17592.0,-0.013721938987129163
17596.0,0.002045478283944188
17600.0,-0.0014967158995304697
17604.0,0.01647599197566917
17608.0,-0.011940691239792139
17612.0,-0.0002613968750770455
17616.0,0.007917262492959064
17620.0,0.1834631953029811
17624.0,0.20946372364866195
17628.0,0.19183231409114226
17632.0,0.21688835568235396
17636.0,0.19897303227117977
17640.0,0.19839437258999892
17644.0,0.2030997910369117
17648.0,0.1956622276507473
17652.0,0.22169713570772603
17656.0,0.1919418988709907
17660.0,0.19053726841354557
17664.0,0.21684402770815686
17668.0,0.1982893928319263
17672.0,0.20788555773268266
17676.0,0.19023822000727592
17680.0,0.19376563892673832
17684.0,0.20805541911317105
17688.0,0.20205077737256613
17692.0,0.1920405827416487
17696.0,0.19954452550074897
17700.0,0.20405965121818115
17704.0,0.024154092137505044
17708.0,0.06597543725665926
17712.0,0.11165552873878998
17716.0,0.11094296018619051
17720.0,0.1498370377070514
17724.0,0.1883520138058028
17728.0,0.2063331769458965
17732.0,0.24059244633909468
17736.0,0.23395041879346723
17740.0,0.2641636651501391
17744.0,0.2652062065805772
17748.0,0.298626299484041
17752.0,0.29582390541711834
17756.0,0.27959888348089834
17760.0,0.2988070596261684
17764.0,0.29769174567938445
17768.0,0.28990937843525927
17772.0,0.27107300409881546
17776.0,0.2792479956964196
17780.0,0.25745825707987885
17784.0,0.23722573337755704
17788.0,0.22922038492241584
17792.0,0.1968422877554586
17796.0,0.19405331388679736
17800.0,0.1455450365005556
17804.0,0.12311917089585155
17808.0,0.09164894691092104
17812.0,0.05862732621950052
17816.0,0.015231906301553196
17820.0,-0.012818748134730775
17824.0,0.0029654914317914518
17828.0,-0.00010268103208936699
17832.0,0.010458229962425939
17836.0,0.010356728125932323
17840.0,-0.006799309629478426
17844.0,0.004251605543879039
17848.0,0.00691215719493332
17852.0,0.006753011360745198
17856.0,-0.005746903870451351
17860.0,-0.0016014994537468816
17864.0,0.0004905139066297297
17868.0,-0.021047191705319754
17872.0,0.020457639678481476
17876.0,0.019372234128502572
17880.0,5.8907685765990994e-05
17884.0,-0.008237599542153997
17888.0,-0.022309192064324683
17892.0,-0.006250324456088109
17896.0,0.00786250405922044
17900.0,0.0
17904.0,0.0
17908.0,0.0
17912.0,0.0
17916.0,0.0
17920.0,0.0
17924.0,0.0
17928.0,0.0
17932.0,0.0
17936.0,0.0
17940.0,0.0
17944.0,0.0
17948.0,0.0
17952.0,0.0
17956.0,0.0
17960.0,0.0
17964.0,0.0
17968.0,0.0
17972.0,0.0
17976.0,0.0
17980.0,0.0
17984.0,0.0
17988.0,0.0
17992.0,0.0
17996.0,0.0
18000.0,0.0
18004.0,0.0
18008.0,0.0
18012.0,0.0
18016.0,0.0
18020.0,0.0
18024.0,0.0
18028.0,0.0
18032.0,0.0
18036.0,0.0
18040.0,0.0
18044.0,0.0
18048.0,0.0
18052.0,0.0
18056.0,0.0
18060.0,0.0
18064.0,0.0
18068.0,0.0
18072.0,0.0
18076.0,0.0
18080.0,0.0
18084.0,0.0
18088.0,0.0
18092.0,0.0
18096.0,0.0
18100.0,-0.008657757944761738
18104.0,0.003722945625274546
18108.0,-0.007716513165991366
18112.0,-0.01450478262160379
18116.0,-0.017184410908950877
18120.0,-0.011057284114808132
18124.0,-0.008077366489186888
18128.0,-0.007293454315053471
18132.0,-0.0061671110761051876
18136.0,-0.001671104263882379
18140.0,0.00150693018188998
18144.0,0.04463833807641261
18148.0,0.059978223232556555
18152.0,0.09168994788759215
18156.0,0.10943659370518646
18160.0,0.11777658902702959
18164.0,0.1663413962539645
18168.0,0.1849896886838257
18172.0,0.17985666702131203
18176.0,0.20166909623827184
18180.0,0.19365862821377905
18184.0,0.17071577462628437
18188.0,0.18299920253737667
18192.0,0.1841866193766893
18196.0,0.1664850178261092
18200.0,0.13465700430530464
18204.0,0.1262692142457484
18208.0,0.09036957332738405
18212.0,0.05129732654027304
18216.0,0.04013298727724299
18220.0,0.008832833425559636
18224.0,0.0020521350415441905
18228.0,-0.014145357964395406
18232.0,-0.010129583130106017
18236.0,0.004541533745653724
18240.0,0.0036977601184561993
18244.0,-0.005412626168675533
18248.0,0.009349749348168195
18252.0,-0.007534610275173059
18256.0,-0.013508193472911639
18260.0,0.009476560553827122
18264.0,-0.017586852973281372
18268.0,-0.001173088264809454
18272.0,0.018025932810599825
18276.0,0.01145220901679803
18280.0,-0.007277335616020263
18284.0,-0.0022060875210496134
18288.0,-0.01666003651127913
18292.0,0.01496937293407731
18296.0,-0.001229553853405107
18300.0,0.011296739358782748
18304.0,-0.038520492651255234
18308.0,-0.08907837743079244
18312.0,-0.1237997440511621
18316.0,-0.17560867917845516
18320.0,-0.006142699480578396
18324.0,0.2112768197388252
18328.0,0.39965774390462444
18332.0,0.6003705040780734
18336.0,0.7901449669237631
18340.0,1.0142184699176429
18344.0,0.8066426406757782
18348.0,0.6112353847620773
18352.0,0.39405496355783826
18356.0,0.18947954301200376
18360.0,0.015592944053496142
18364.0,-0.07133402424868372
18368.0,-0.16411083466549653
18372.0,-0.23368197923590725
18376.0,-0.29166457023724746
18380.0,-0.2285770135359538
18384.0,-0.15000794160796288
18388.0,-0.05645485008413086
18392.0,0.006484908262450893
18396.0,0.0015589734374348288
18400.0,-0.010433780772832111
18404.0,-0.015017539630487643
18408.0,-0.003356467714440326
18412.0,0.005145446569518375
18416.0,0.0006149587148972633
18420.0,0.18700741650434105
18424.0,0.20833717944908559
18428.0,0.20594409173186873
18432.0,0.19517284351615094
18436.0,0.2107530016318832
18440.0,0.2025130370674357
18444.0,0.20133532642456095
18448.0,0.2086420392568375
18452.0,0.2083474243734236
18456.0,0.211370322505769
18460.0,0.19493594062368685
18464.0,0.19996994064012455
18468.0,0.21976468356372028
18472.0,0.18778261333835294
18476.0,0.1991880390821842
18480.0,0.2056906799358049
18484.0,0.20544091349091734
18488.0,0.19306490036156684
18492.0,0.21570716190987277
18496.0,0.20184644155338743
18500.0,0.17637783135415155
18504.0,0.043760111189241946
18508.0,0.06597437258446434
18512.0,0.09769943289252896
18516.0,0.1247182979353077
18520.0,0.1457490935215573
18524.0,0.18141021904028284
18528.0,0.20805327702365412
18532.0,0.2286796781093559
18536.0,0.23249413693347445
18540.0,0.24416541465978756
18544.0,0.2684836875170145
18548.0,0.2628789310246791
18552.0,0.2966200959783819
18556.0,0.3026233019334007
18560.0,0.2851073795047997
18564.0,0.2875191026523941
18568.0,0.2928039226064492
18572.0,0.27674297250519986
18576.0,0.2930795115776045
18580.0,0.26275929248770574
18584.0,0.24472432156768173
18588.0,0.21196894370982491
18592.0,0.19713159999906707
18596.0,0.1759288440427334
18600.0,0.15512457759075982
18604.0,0.137706912287263
18608.0,0.09666894136317238
18612.0,0.06469528540392513
18616.0,0.028634158656696572
18620.0,-0.012501425680346406
18624.0,0.015644995432992127
18628.0,0.010883434039137541
18632.0,-0.0066110877029708715
18636.0,-0.01560510594380125
18640.0,0.011315080894770705
18644.0,0.004293952403114622
18648.0,-0.00589843748248664
18652.0,0.009065670944508301
18656.0,0.01151786582145784
18660.0,-0.0012256556367975589
18664.0,0.005905848353062192
18668.0,-0.00571855315923708
18672.0,0.021461863346809315
18676.0,-0.007146010545139865
18680.0,0.005947659447836183
18684.0,-0.017281041794182217
18688.0,-0.005913508296617528
18692.0,0.004146344495117706
18696.0,-0.009753299673112677
18700.0,0.0
18704.0,0.0
18708.0,0.0
18712.0,0.0
18716.0,0.0
18720.0,0.0
18724.0,0.0
18728.0,0.0
18732.0,0.0
18736.0,0.0
18740.0,0.0
18744.0,0.0
18748.0,0.0
18752.0,0.0
18756.0,0.0
18760.0,0.0
18764.0,0.0
18768.0,0.0
18772.0,0.0
18776.0,0.0
18780.0,0.0
18784.0,0.0
18788.0,0.0
18792.0,0.0
18796.0,0.0
18800.0,0.0
18804.0,0.0
18808.0,0.0
18812.0,0.0
18816.0,0.0
18820.0,0.0
18824.0,0.0
18828.0,0.0
18832.0,0.0
18836.0,0.0
18840.0,0.0
18844.0,0.0
18848.0,0.0
18852.0,0.0
18856.0,0.0
18860.0,0.0
18864.0,0.0
18868.0,0.0
18872.0,0.0
18876.0,0.0
18880.0,0.0
18884.0,0.0
18888.0,0.0
18892.0,0.0
18896.0,0.0
18900.0,-0.0003802352925468761
18904.0,0.015379978788745424
18908.0,-0.005049958894240352
18912.0,0.0034352886033447556
18916.0,0.01596524764007115
18920.0,-0.0011254662665962536
18924.0,0.005237164098004665
18928.0,-0.014795606641628314
18932.0,0.009836611908948153
18936.0,0.003955677542512467
18940.0,-0.015217761413014829
18944.0,0.01845880720835596
18948.0,0.07330154075285097
18952.0,0.08419955905986785
18956.0,0.1288693999827168
18960.0,0.14401522729765825
18964.0,0.16753977270672746
18968.0,0.17862001303631844
18972.0,0.18966578435656806
18976.0,0.21445953716819058
18980.0,0.20741040277121747
18984.0,0.21810775040502042
18988.0,0.1921127541654592
18992.0,0.1859436327048081
18996.0,0.16409366180551696
19000.0,0.15712367695670906
19004.0,0.11094441076152138
19008.0,0.08149544110569161
19012.0,0.06816664723306019
19016.0,0.031558239226347456
19020.0,-0.004885498494958673
19024.0,-0.016305928036727375
19028.0,0.0021208926917997443
19032.0,-0.00010778995480715132
19036.0,0.004164578395036879
19040.0,-0.013518030338261842
19044.0,-0.004761699644252271
19048.0,0.01155592242676324
19052.0,0.00418760866760267
19056.0,-0.002020763233970386
19060.0,-0.011217245916437895
19064.0,-0.0003769931001661231
19068.0,-0.014743993045277987
19072.0,-0.00907978608296847
19076.0,-0.009892413287125248
19080.0,-0.008239752828430758
19084.0,-0.0021365552671788364
19088.0,0.010807204357691821
19092.0,-0.011040263321854236
19096.0,-0.002369345155986143
19100.0,-0.004133533333664528
19104.0,-0.040385960834272316
19108.0,-0.07479702272176739
19112.0,-0.11724736840151753
19116.0,-0.15939492198999383
19120.0,-0.02226012648896425
19124.0,0.20573441739586387
19128.0,0.3829168779377339
19132.0,0.6033878488945132
19136.0,0.8025240856076776
19140.0,1.005481588005618
19144.0,0.7873882596360794
19148.0,0.604176315545971
19152.0,0.40976938320487394
19156.0,0.21708575700515584
19160.0,0.0076976520755020475
19164.0,-0.07857936887829488
19168.0,-0.1450880752072849
19172.0,-0.21545701321174598
19176.0,-0.3060964201261957
19180.0,-0.22347115807963266
19184.0,-0.13778849118648773
19188.0,-0.06736722428252881
19192.0,0.016917275680575227
19196.0,0.004947591277850521
19200.0,-0.0015417747599682328
19204.0,-0.0026537695080639237
19208.0,0.0005300531830548577
19212.0,-0.004859937009020273
19216.0,0.005277127786882412
19220.0,0.18409824033908462
19224.0,0.20465006232315439
19228.0,0.2079270496371422
19232.0,0.19671518436412097
19236.0,0.20421393896405018
19240.0,0.1898014780571823
19244.0,0.1917130537657244
19248.0,0.18183481664921797
19252.0,0.20497486996446498
19256.0,0.21588136633204486
19260.0,0.20759827345481507
19264.0,0.17610512224767727
19268.0,0.20202766525261567
19272.0,0.19179525811394146
19276.0,0.1979907707771294
19280.0,0.20146460155932838
19284.0,0.21797122264770855
19288.0,0.1979311433918566
19292.0,0.20161189449783118
19296.0,0.20569735672171488
19300.0,0.1917828368856491
19304.0,0.03561414343060201
19308.0,0.05189495542791074
19312.0,0.0874186909081514
19316.0,0.13053512636005482
19320.0,0.1395595212507061
19324.0,0.19730061947053298
19328.0,0.19994090721684424
19332.0,0.22450896663423703
19336.0,0.2335986927924284
19340.0,0.26056209140188347
19344.0,0.26902248739705203
19348.0,0.2828069445178811
19352.0,0.2815154808020045
19356.0,0.2938722391388558
19360.0,0.3141068414809179
19364.0,0.2889110905205875
19368.0,0.3040714043647828
19372.0,0.2951408510703067
19376.0,0.279709178956435
19380.0,0.26075724399609107
19384.0,0.25184147205098734
19388.0,0.20469763604600358
19392.0,0.20100472771371528
19396.0,0.18023047177680213
19400.0,0.15046337100775029
19404.0,0.14474385894483527
19408.0,0.08903402714344519
19412.0,0.06338242730994116
19416.0,0.03058355198129862
19420.0,-0.018933668920903955
19424.0,0.004371207950254946
19428.0,0.0019859472134756643
19432.0,0.00769251489290601
19436.0,0.005021390869460959
19440.0,-0.014089329032783746
19444.0,-0.00929974506462743
19448.0,-0.010670934460964876
19452.0,0.0052260924542435975
19456.0,0.002241389534045942
19460.0,0.0068375133262732
19464.0,0.0057500075717271905
19468.0,0.0038503934603956774
19472.0,-0.02424057950984164
19476.0,-0.008695405332749989
19480.0,-0.022310077974521822
19484.0,0.0024216517922852642
19488.0,0.0033161562426317326
19492.0,0.02078563555239279
19496.0,0.012413125172616883
19500.0,0.0
19504.0,0.0
19508.0,0.0
19512.0,0.0
19516.0,0.0
19520.0,0.0
19524.0,0.0
19528.0,0.0
19532.0,0.0
19536.0,0.0
19540.0,0.0
19544.0,0.0
19548.0,0.0
19552.0,0.0
19556.0,0.0
19560.0,0.0
19564.0,0.0
19568.0,0.0
19572.0,0.0
19576.0,0.0
19580.0,0.0
19584.0,0.0
19588.0,0.0
19592.0,0.0
19596.0,0.0
19600.0,0.0
19604.0,0.0
19608.0,0.0
19612.0,0.0
19616.0,0.0
19620.0,0.0
19624.0,0.0
19628.0,0.0
19632.0,0.0
19636.0,0.0
19640.0,0.0
19644.0,0.0
19648.0,0.0
19652.0,0.0
19656.0,0.0
19660.0,0.0
19664.0,0.0
19668.0,0.0
19672.0,0.0
19676.0,0.0
19680.0,0.0
19684.0,0.0
19688.0,0.0
19692.0,0.0
19696.0,0.0
19700.0,-0.006390380250482941
19704.0,-0.005870009968309157
19708.0,-0.009552678197652334
19712.0,-0.013523772439593403
19716.0,0.004637088640453128
19720.0,0.005654780392792621
19724.0,-0.0028260379164975254
19728.0,0.0036927243657642267
19732.0,-0.0032363184323919705
19736.0,0.0075238161538741756
19740.0,0.002432584263745648
19744.0,0.04864827141998633
19748.0,0.07775141232084071
19752.0,0.09448206073076533
19756.0,0.12612299619783418
19760.0,0.140025177972266
19764.0,0.15602422049438325
19768.0,0.1886484410601353
19772.0,0.18242599263559292
19776.0,0.19359837140808053
19780.0,0.20269087375335448
19784.0,0.18606539522501006
19788.0,0.18097797195031579
19792.0,0.18851003539986746
19796.0,0.17261060346245033
19800.0,0.1559662046716737
19804.0,0.11691564628170026
19808.0,0.08477349000087699
19812.0,0.05239401289331465
19816.0,0.032774087443947636
19820.0,-0.0053173824106282075
19824.0,-0.018862725436201905
19828.0,-0.007929508871156394
19832.0,0.0005083456005758117
19836.0,0.0059286937760384744
19840.0,-0.015033784288456132
19844.0,-0.01440365411012666
19848.0,0.010193361450698163
19852.0,0.003325353225984754
19856.0,0.0001672748754134137
19860.0,0.016104432821625755
19864.0,0.011854956147005392
19868.0,-0.00403384722159364
19872.0,0.011303746699145694
19876.0,-0.0168814496253018
19880.0,-0.016300607013384646
19884.0,-0.006611048072233192
19888.0,-0.021771183594104
19892.0,-0.011132118625034984
19896.0,-0.022049415861061353
19900.0,0.002590395295625351
19904.0,-0.0586433146419485
19908.0,-0.08078351758413888
19912.0,-0.1362714688716706
19916.0,-0.15846927637177288
19920.0,-0.007453004185481117
19924.0,0.19354970005082725
19928.0,0.3902982449264099
19932.0,0.5974634193888932
19936.0,0.8102646345236322
19940.0,1.0025184073294997
19944.0,0.7986288833606131
19948.0,0.6209915273786458
19952.0,0.388817772941019
19956.0,0.202262250913157
19960.0,-0.014610910999819681
19964.0,-0.08229744683948267
19968.0,-0.13977918009134177
19972.0,-0.22158239206692942
19976.0,-0.2992840046623087
19980.0,-0.23012913907911528
19984.0,-0.13956771595159684
19988.0,-0.07172568245756288
19992.0,0.0028808229919396466
19996.0,0.012070475246691826
20000.0,-0.021173385333328
20004.0,0.0054031145378069375
20008.0,0.020189694603426164
20012.0,0.006914674318038142
20016.0,-0.004066984613469014
20020.0,0.17960773198792782
20024.0,0.22181134225079252
20028.0,0.20442744731396809
20032.0,0.21558990162713979
20036.0,0.189188317505117
20040.0,0.18597760473725952
20044.0,0.2072582977575959
20048.0,0.1893766955434426
20052.0,0.20779325641624163
20056.0,0.1964280738062422
20060.0,0.20528813499648602
20064.0,0.19478064011650073
20068.0,0.1885547023171243
20072.0,0.20464064759192402
20076.0,0.2236946289253285
20080.0,0.20052630082990833
20084.0,0.20067332592419668
20088.0,0.19434437236770594
20092.0,0.19121997963233645
20096.0,0.19592741624554552
20100.0,0.197406837046666
20104.0,0.03782205682052889
20108.0,0.07087911218346024
20112.0,0.08251631960132658
20116.0,0.12976676076389682
20120.0,0.14925415827652191
20124.0,0.18871441179655385
20128.0,0.18113264765947892
20132.0,0.20796730471598945
20136.0,0.23167082208351883
20140.0,0.2541485852149223
20144.0,0.26745812774895006
20148.0,0.28270031763010073
20152.0,0.2969812628527928
20156.0,0.2985512676623553
20160.0,0.28566770578988265
20164.0,0.2897189348381673
20168.0,0.28832138993478423
20172.0,0.3048389330020565
20176.0,0.29264206328977205
20180.0,0.2672025663840933
20184.0,0.24447825691896014
20188.0,0.22549909324467504
20192.0,0.1920997788913844
20196.0,0.17362543816906514
20200.0,0.1456495069227284
20204.0,0.1218826467985716
20208.0,0.07887288025450734
20212.0,0.06456931119047374
20216.0,0.035234897051038015
20220.0,-0.0046420944060877765
20224.0,0.0018601318470516648
20228.0,0.022330301108456227
20232.0,0.005446956990822965
20236.0,0.01209501859387151
20240.0,0.001727370563295408
20244.0,-0.002983646808845411
20248.0,0.0014937487728421644
20252.0,0.005447480387696202
20256.0,0.0014371746232020425
20260.0,-0.030114585659440196
20264.0,0.008610602718290105
20268.0,-0.011659439858088821
20272.0,-0.003255892060908997
20276.0,0.018213947012174988
