time,value
0.0,0.0
4.0,0.0
8.0,0.0
12.0,0.0
16.0,0.0
20.0,0.0
24.0,0.0
28.0,0.0
32.0,0.0
36.0,0.0
40.0,0.0
44.0,0.0
48.0,0.0
52.0,0.0
56.0,0.0
60.0,0.0
64.0,0.0
68.0,0.0
72.0,0.0
76.0,0.0
80.0,0.0
84.0,0.0
88.0,0.0
92.0,0.0
96.0,0.0
100.0,0.0
104.0,0.0
108.0,0.0
112.0,0.0
116.0,0.0
120.0,0.0
124.0,0.0
128.0,0.0
132.0,0.0
136.0,0.0
140.0,0.0
144.0,0.0
148.0,0.0
152.0,0.0
156.0,0.0
160.0,0.0
164.0,0.0
168.0,0.0
172.0,0.0
176.0,0.0
180.0,0.0
184.0,0.0
188.0,0.0
192.0,0.0
196.0,0.0
200.0,0.0
204.0,0.0
208.0,0.0
212.0,0.0
216.0,0.0
220.0,0.0
224.0,0.0
228.0,0.0
232.0,0.0
236.0,0.0
240.0,0.0
244.0,0.0
248.0,0.0
252.0,0.0
256.0,0.0
260.0,0.0
264.0,0.0
268.0,0.0
272.0,0.0
276.0,0.0
280.0,0.0
284.0,0.0
288.0,0.0
292.0,0.0
296.0,0.0
300.0,0.0
304.0,0.0
308.0,0.0
312.0,0.0
316.0,0.0
320.0,0.0
324.0,0.0
328.0,0.0
332.0,0.0
336.0,0.0
340.0,0.0
344.0,0.0
348.0,0.0
352.0,0.0
356.0,0.0
360.0,0.0
364.0,0.0
368.0,0.0
372.0,0.0
376.0,0.0
380.0,0.0
384.0,0.0
388.0,0.0
392.0,0.0
396.0,0.0
400.0,0.0
404.0,0.0
408.0,0.0
412.0,0.0
416.0,0.0
420.0,0.0
424.0,0.0
428.0,0.0
432.0,0.0
436.0,0.0
440.0,0.0
444.0,0.0
448.0,0.0
452.0,0.0
456.0,0.0
460.0,0.0
464.0,0.0
468.0,0.0
472.0,0.0
476.0,0.0
480.0,0.0
484.0,0.0
488.0,0.0
492.0,0.0
496.0,0.0
500.0,-0.0032982488286464585
504.0,-0.0008214549611394911
508.0,-0.016685968271263788
512.0,-0.013819977238940833
516.0,-0.00439742834594353
520.0,-0.0123331108323049
524.0,-0.0015816874340158792
528.0,0.003420734456271507
532.0,-0.0035217269832695085
536.0,0.009216788923305623
540.0,-0.001976564960401466
544.0,0.04048155706322659
548.0,0.049964742182356095
552.0,0.09587514547585214
556.0,0.11533502834852993
560.0,0.13038113478440408
564.0,0.15301966949000195
568.0,0.16751896153957863
572.0,0.1794858868160003
576.0,0.17452129991339538
580.0,0.18591914444469337
584.0,0.17542173176330025
588.0,0.17891153547979505
592.0,0.16823825363197387
596.0,0.14269624853698076
600.0,0.1041220265176785
604.0,0.1058425484661115
608.0,0.07814387761689935
612.0,0.06830781721859136
616.0,0.016608075720131045
620.0,-0.005003417150957238
624.0,-0.016882630210085587
628.0,0.0051467493434680925
632.0,0.006190278692766142
636.0,0.004276998775323175
640.0,-0.004499085438568403
644.0,-0.005316098678831564
648.0,0.003272671699932511
652.0,0.011385410762296147
656.0,0.015726582325349018
660.0,0.0030170035163521766
664.0,-0.008414567905489162
668.0,-0.0004604256386418709
672.0,-0.008765372429977932
676.0,0.005732724897538676
680.0,-0.002741613419277398
684.0,0.002281750390690732
688.0,0.008384664892665013
692.0,-0.004695334669561002
696.0,0.01954914649880957
700.0,0.0028062725299497233
704.0,-0.03703936062585034
708.0,-0.09087290823255344
712.0,-0.09945472011468734
716.0,-0.15272941446679766
720.0,-0.005811075357744714
724.0,0.19248772933021313
728.0,0.3567141974677928
732.0,0.5474028843958284
736.0,0.7218195756541859
740.0,0.9108745059167741
744.0,0.7369815592750336
748.0,0.5426139907797202
752.0,0.37083291397597545
756.0,0.1866107964642924
760.0,0.017135973045687737
764.0,-0.06342118077696932
768.0,-0.14551271867758467
772.0,-0.21181177320646374
776.0,-0.26420732586108986
780.0,-0.19487231738932387
784.0,-0.1198226063676283
788.0,-0.0736613564280317
792.0,-0.0029986089683486346
796.0,-0.009723449986962852
800.0,0.005408310101287288
804.0,-0.001264346000254559
808.0,0.017883093470602875
812.0,0.002723978574901576
816.0,-0.004339055441744837
820.0,0.010409621117544834
824.0,-0.008981598916529094
828.0,-0.019355401981782403
832.0,-0.018011184110633554
836.0,0.014840473058590422
840.0,-0.0061823109595631745
844.0,-0.0072521655733835955
848.0,-0.017981085916607173
852.0,0.00543650237291481
856.0,0.008991559103489519
860.0,-0.007890578304057186
864.0,0.01091055379543842
868.0,-0.011613163759058454
872.0,-0.006043587053778899
876.0,0.006878303347096766
880.0,0.018785633190895174
884.0,-0.002282689534196748
888.0,0.0018689803853170553
892.0,-0.006711588409625415
896.0,-0.004007508287860744
900.0,-0.018470480515940992
904.0,0.03174260052105604
908.0,0.06114110850835445
912.0,0.0819864976563894
916.0,0.11708463193972436
920.0,0.12468322868973082
924.0,0.16318710035788667
928.0,0.19461565847753132
932.0,0.19454422154599002
936.0,0.22040608656862892
940.0,0.22470428208892848
944.0,0.2706219873743024
948.0,0.2704753573320214
952.0,0.2608998007004415
956.0,0.26628629411343635
960.0,0.003919633503171622
964.0,-0.010043243751312365
968.0,-0.00016119383666825078
972.0,0.00026448401092133973
976.0,-0.003500827633918213
980.0,0.007682627883136175
984.0,-0.002997856519654527
988.0,-0.010246661687769141
992.0,-0.005420140032129939
996.0,-0.00441330719375321
1000.0,0.01516610562375606
1004.0,0.044460038976483277
1008.0,0.06599392379041084
1012.0,0.0894653717853954
1016.0,0.1281961249177458
1020.0,0.11999576126628538
1024.0,0.13761670028964895
1028.0,0.1585639569207934
1032.0,0.1705253646553474
1036.0,0.1897143939821971
1040.0,0.17581850450206093
1044.0,0.16866567628948873
1048.0,0.15807715921834647
1052.0,0.1759697244715012
1056.0,0.1492533690461005
1060.0,0.1288731068759768
1064.0,0.108935908861682
1068.0,0.08254209303956032
1072.0,0.06420201544161858
1076.0,0.02523386713319414
1080.0,-0.00975672560188502
1084.0,0.008172118309017498
1088.0,0.006689326700615908
1092.0,-0.00022971807099022665
1096.0,-0.004295715681145576
1100.0,0.0010930522443776643
1104.0,-0.013754384342836733
1108.0,-0.004842776169334336
1112.0,-0.0031297636424149366
1116.0,0.014915312446977224
1120.0,0.01004777966625204
1124.0,0.004111771781630024
1128.0,-0.0021512493234551616
1132.0,0.0037679345177512808
1136.0,0.0016856671861407357
1140.0,-0.0005395374040617715
1144.0,0.008898761549106793
1148.0,0.005160147381935468
1152.0,0.015262429840485559
1156.0,0.006289277293015945
1160.0,0.019309022702149983
1164.0,-0.03475321725604467
1168.0,-0.07868963177857513
1172.0,-0.09302853817601273
1176.0,-0.12528804101641688
1180.0,-0.006760246854991476
1184.0,0.17825509604399387
1188.0,0.3575038042696276
1192.0,0.5425662749789617
1196.0,0.7318659646543465
1200.0,0.9236303129741467
1204.0,0.712323760000587
1208.0,0.5313048612399262
1212.0,0.36382798938932676
1216.0,0.1737794310222644
1220.0,0.003188896521520715
1224.0,-0.06659539543075094
1228.0,-0.13653458142567282
1232.0,-0.21948487175223197
1236.0,-0.26562996037875963
1240.0,-0.19676015844126318
1244.0,-0.11551351984550182
1248.0,-0.06325894669747709
1252.0,0.013686577867605956
1256.0,0.009608650964438489
1260.0,-0.00022018727008853828
1264.0,0.0106375972987214
1268.0,-0.011414519195759918
1272.0,0.01597174793815575
1276.0,0.0012181634496515165
1280.0,-0.0010319938615371443
1284.0,0.007231204276688626
1288.0,0.009903909725978365
1292.0,-0.007076000690151737
1296.0,-0.010112215133758172
1300.0,0.013121829481154559
1304.0,0.016270008078654738
1308.0,-0.00021628784870003707
1312.0,-0.008627926330988639
1316.0,-0.0032029250629068834
1320.0,0.003987483370378873
1324.0,-0.006634976122096193
1328.0,-0.010439314793375397
1332.0,0.00039498931129130854
1336.0,-0.0028632708241474757
1340.0,-0.000526844498103467
1344.0,0.0028688155405363703
1348.0,-0.005822401499492698
1352.0,-0.009696529754922141
1356.0,-0.011860958078620192
1360.0,-0.0008088532420177216
1364.0,0.03220570838399253
1368.0,0.04633384587885206
1372.0,0.07895085355108192
1376.0,0.11532093264054913
1380.0,0.13724747310948984
1384.0,0.14184495913405437
1388.0,0.18400695746075482
1392.0,0.19795642771621152
1396.0,0.22856538096103945
1400.0,0.23002091370265224
1404.0,0.24877773635247358
1408.0,0.2509038287780893
1412.0,0.2633028261016761
1416.0,0.2725110758129429
1420.0,0.010666851390024686
1424.0,0.0037340253963803133
1428.0,-0.013066112636178113
1432.0,0.014327649949185305
1436.0,0.006738933365682459
1440.0,0.003511359885732954
1444.0,0.012869008110482723
1448.0,0.0039396979713293276
1452.0,0.006161302074893852
1456.0,0.017207107198571214
1460.0,0.006167989353930935
1464.0,0.05062587716757663
1468.0,0.03981385147188166
1472.0,0.07903641250991103
1476.0,0.10820885822878995
1480.0,0.12348111115057038
1484.0,0.14880199880917352
1488.0,0.1601173601384003
1492.0,0.16837583470061046
1496.0,0.1652404407191524
1500.0,0.18321334688310822
1504.0,0.17989913187546358
1508.0,0.17500170639600326
1512.0,0.14514961693267983
1516.0,0.1474464334993188
1520.0,0.12118242130384789
1524.0,0.09186061456952627
1528.0,0.07620306487098036
1532.0,0.07220935587408227
1536.0,0.025353652639523154
1540.0,0.0006980426370363401
1544.0,0.010971705513614356
1548.0,-0.013286369483772067
1552.0,-0.0003532355612077498
1556.0,-0.010610861042628508
1560.0,-0.0007299373671275397
1564.0,-0.0014283712131576865
1568.0,0.0016776938287665828
1572.0,0.0027685446449448666
1576.0,-0.010509909292984058
1580.0,-0.01619006787829035
1584.0,-0.004479412202574379
1588.0,-0.011768976413675619
1592.0,-0.0022255064875492127
1596.0,0.002037289291992119
1600.0,-0.003104037589326078
1604.0,7.363043450930004e-07
1608.0,-0.015658787983680696
1612.0,-0.0021114991144946613
1616.0,-0.0037687675618704453
1620.0,0.008038312065671077
1624.0,-0.0411577322595363
1628.0,-0.07254059813339138
1632.0,-0.11864382872397465
1636.0,-0.13499165447191352
1640.0,0.0005772115695202228
1644.0,0.18138066280468368
1648.0,0.3713648940966247
1652.0,0.5556115223770824
1656.0,0.7139056126975181
1660.0,0.8962048085758894
1664.0,0.7357421022400112
1668.0,0.552528277780103
1672.0,0.35590984206530735
1676.0,0.1889207746748172
1680.0,-0.01639981310002106
1684.0,-0.08126679362889765
1688.0,-0.14045612154780213
1692.0,-0.19681622997616652
1696.0,-0.2743367159393661
1700.0,-0.20482843594352423
1704.0,-0.13304529685427804
1708.0,-0.07903559033036893
1712.0,0.014471348289508355
1716.0,-0.009694006757229125
1720.0,-0.005594506134115064
1724.0,0.013033459860859659
1728.0,0.019372445583589592
1732.0,0.009066144776709022
1736.0,-0.003534992646425872
1740.0,-0.006784094565624423
1744.0,0.0016976958481869522
1748.0,0.008428583195584573
1752.0,0.004003472241520844
1756.0,-0.011977027852607536
1760.0,-0.007471569287985982
1764.0,0.015844000537616122
1768.0,0.0032640614958712776
1772.0,0.012907315474898446
1776.0,0.012600818877855649
1780.0,-0.011219397592430373
1784.0,0.009740894405021626
1788.0,-0.01897595841079351
1792.0,0.004012104653256051
1796.0,0.009242732529964156
1800.0,-0.019759318214560725
1804.0,0.0005318286539649786
1808.0,-0.011603004648798425
1812.0,-0.02584740012532413
1816.0,-0.002437275963319944
1820.0,0.014092236412721754
1824.0,0.02664575712958073
1828.0,0.0646777028438699
1832.0,0.07724892960415948
1836.0,0.12495962414659932
1840.0,0.12389401887821976
1844.0,0.16712604203425038
1848.0,0.18470402734620084
1852.0,0.18501550645415954
1856.0,0.22695937137508557
1860.0,0.2119922948999941
1864.0,0.2478372614214073
1868.0,0.23947244621558542
1872.0,0.2622779639025842
1876.0,0.27010109155028467
1880.0,0.0004994440209231378
1884.0,-0.0014679261771550257
1888.0,0.00012472504853916456
1892.0,-0.004181826700944101
1896.0,-0.01634820672576384
1900.0,0.006215754739746394
1904.0,-0.012214954063416055
1908.0,0.0021689756400344587
1912.0,0.0010653646418961095
1916.0,-0.005063007346228753
1920.0,-0.0007686710104728182
1924.0,0.0299792614449731
1928.0,0.04382532124562345
1932.0,0.09200712498902777
1936.0,0.10725555187218451
1940.0,0.11730574154244809
1944.0,0.16097763894783473
1948.0,0.17411442418728545
1952.0,0.16931016633471374
1956.0,0.1677310676628828
1960.0,0.16377311193552924
1964.0,0.17786471909428453
1968.0,0.17656616403513845
1972.0,0.1619544837970575
1976.0,0.15986485684345703
1980.0,0.1311844163825229
1984.0,0.10837579263374841
1988.0,0.08001410974567072
1992.0,0.06696522550939624
1996.0,0.035118198916505215
2000.0,0.009170488315513165
2004.0,0.002101359810733532
2008.0,0.008243735765123224
2012.0,-0.0011282620346586287
2016.0,-0.004795018208555553
2020.0,0.011846207685186379
2024.0,-0.0008104201385296784
2028.0,-0.0028922706776383007
2032.0,-0.0015502122298559292
2036.0,0.014913913211856653
2040.0,0.00089566754480821
2044.0,0.0030804043673387555
2048.0,0.00944365091918212
2052.0,0.0037140977335668175
2056.0,-0.0026404130907795066
2060.0,-0.0059487509797528475
2064.0,0.0007768420709921951
2068.0,0.0033345274168439716
2072.0,-0.006155582697980816
2076.0,-0.0036004079278001613
2080.0,-0.029274874894049355
2084.0,-0.04059040145809949
2088.0,-0.05605799593174356
2092.0,-0.11947286043772067
2096.0,-0.16198008751252674
2100.0,0.006447471408959869
2104.0,0.16846276763746407
2108.0,0.36661220703396796
2112.0,0.548693782595475
2116.0,0.7139592644431761
2120.0,0.9194420010665337
2124.0,0.7125206679508143
2128.0,0.5431543577931058
2132.0,0.3539516482834511
2136.0,0.18082778495774726
2140.0,0.013579161588355504
2144.0,-0.0646800619183931
2148.0,-0.13148593074467432
2152.0,-0.19956473961018287
2156.0,-0.2745735016040882
2160.0,-0.1967837472443971
2164.0,-0.1456332119516772
2168.0,-0.06068372904001418
2172.0,-0.005815760671837775
2176.0,0.03945147512032666
2180.0,0.00795961867424963
2184.0,0.0052228484330740675
2188.0,-0.006570341050205455
2192.0,0.005922584788166357
2196.0,0.013300715473381623
2200.0,0.001924743739217419
2204.0,-0.00021754607511636744
2208.0,-0.005235850975956719
2212.0,0.0069899789409175244
2216.0,0.007967336741880576
2220.0,-0.005678812491020976
2224.0,-0.011841452108786154
2228.0,-0.004412927395052788
2232.0,0.003600429079737054
2236.0,-0.002279322079451897
2240.0,-0.005090873233874959
2244.0,0.011562400375279292
2248.0,0.003835910384938666
2252.0,-0.006117637640259636
2256.0,0.008666361643360909
2260.0,-0.002598396174258132
2264.0,-0.0028557230288548665
2268.0,-0.004614481930715992
2272.0,0.010337823476818987
2276.0,0.0020039132729823203
2280.0,0.0005466076821066285
2284.0,0.025318505959706156
2288.0,0.0624307148582117
2292.0,0.07930105261448397
2296.0,0.12661091463475094
2300.0,0.1426890587511531
2304.0,0.17964547665485592
2308.0,0.17622737331521485
2312.0,0.20066632763563202
2316.0,0.20961737272079622
2320.0,0.23568240331122478
2324.0,0.24631237965973454
2328.0,0.2722750413867019
2332.0,0.27147650522773514
2336.0,0.2729625830776807
2340.0,0.01698687460998692
2344.0,0.00804642638046344
2348.0,-0.014730821928932714
2352.0,-0.002473592872564683
2356.0,-0.006748789082457124
2360.0,-0.011924430920833942
2364.0,0.006582091387642457
2368.0,0.022488523308991048
2372.0,-0.012192859446154312
2376.0,-0.025667422594146696
2380.0,0.008996090189918975
2384.0,0.02628974589254738
2388.0,0.053932617378911314
2392.0,0.08779027114974602
2396.0,0.10870677196102901
2400.0,0.13380609310459413
2404.0,0.15262241212661412
2408.0,0.17085277702009014
2412.0,0.1747404122885136
2416.0,0.19151897704712093
2420.0,0.17711473726129315
2424.0,0.17589072464539232
2428.0,0.15190347869589704
2432.0,0.17612574027845682
2436.0,0.13983667073267902
2440.0,0.11741509960144207
2444.0,0.1036434712049515
2448.0,0.08740393807346451
2452.0,0.06753132259329607
2456.0,0.022207585962127473
2460.0,-0.004213682771880509
2464.0,0.00816595277854055
2468.0,0.01387011702519188
2472.0,-0.004764481964186006
2476.0,-0.00046834392821445324
2480.0,0.013000221344694663
2484.0,-0.009400099824441977
2488.0,0.006365280568854155
2492.0,0.0018387502721953334
2496.0,0.004837445983907529
2500.0,-0.0017643557684498682
2504.0,0.009005653995604698
2508.0,0.007498394619948266
2512.0,-0.011298996144021313
2516.0,-0.005375388326217812
2520.0,-0.004107255792757876
2524.0,0.003430471802179026
2528.0,0.004233576990669731
2532.0,0.025544462960029823
2536.0,-0.014385858274178874
2540.0,-0.001932836271164486
2544.0,-0.027498490050217525
2548.0,-0.07615922339473365
2552.0,-0.11806479143781097
2556.0,-0.14352701727537426
2560.0,0.0022039061787566512
2564.0,0.17305991742599056
2568.0,0.3589502606812446
2572.0,0.5383029387217036
2576.0,0.7280562495232092
2580.0,0.8992961656909957
2584.0,0.7109945722377997
2588.0,0.5247805684157683
2592.0,0.37683551175411484
2596.0,0.18577122876433566
2600.0,0.007343645806495114
2604.0,-0.07659961857368286
2608.0,-0.14813039751781248
2612.0,-0.1959822476712052
2616.0,-0.2732158432440579
2620.0,-0.19082294019898502
2624.0,-0.15314898065348997
2628.0,-0.056474802677944747
2632.0,0.003131446177166603
2636.0,-0.006137164671064343
2640.0,0.004276065432339895
2644.0,-0.007871840100618628
2648.0,-0.019453772618187412
2652.0,0.0014361358987992504
2656.0,-0.020056437999312674
2660.0,0.003120846870593494
2664.0,0.0017092423063321616
2668.0,0.011274365420781623
2672.0,-0.007618596259985342
2676.0,-0.00031272898803021983
2680.0,0.0026408871471866667
2684.0,0.0030867383283959045
2688.0,-0.007033374670042905
2692.0,-0.0019246952893516626
2696.0,0.0033249317197300695
2700.0,-0.006941821204237137
2704.0,0.01264199612029757
2708.0,0.008634983114206438
2712.0,0.004270141095577689
2716.0,-0.003675813626514403
2720.0,-0.0017695388826478578
2724.0,0.002853585579816784
2728.0,0.0019678767130705595
2732.0,-4.900152813268219e-05
2736.0,-0.005482263157774352
2740.0,0.01550679820499651
2744.0,0.030570875573469575
2748.0,0.05181249836722892
2752.0,0.09130424267742171
2756.0,0.11483517046327082
2760.0,0.1252631140639153
2764.0,0.15287653338856236
2768.0,0.17781613640864172
2772.0,0.20811056792529997
2776.0,0.221725235068276
2780.0,0.25178421586283706
2784.0,0.25118989888518295
2788.0,0.263355842765665
2792.0,0.27158772883048365
2796.0,0.2759321446929991
2800.0,-0.01256502885286244
2804.0,0.01407455585286908
2808.0,-0.002692902985787228
2812.0,-0.012085734166161299
2816.0,0.010102635160839077
2820.0,-0.005188817238364405
2824.0,-0.015561221019580367
2828.0,0.009466705012498662
2832.0,-0.02707463772294466
2836.0,0.003711241147155922
2840.0,0.004319896769969442
2844.0,0.028787784585449002
2848.0,0.04954493040508566
2852.0,0.09189272990668838
2856.0,0.10913197745279701
2860.0,0.11432037576078775
2864.0,0.1594018339697244
2868.0,0.1596503965822773
2872.0,0.1729698337312004
2876.0,0.17495488830607733
2880.0,0.18143725853239856
2884.0,0.17210343405125964
2888.0,0.1626736511609065
2892.0,0.14614144659749695
2896.0,0.1467759747335749
2900.0,0.12987249931512068
2904.0,0.1071097127231301
2908.0,0.1031342443613832
2912.0,0.05767976135386903
2916.0,0.03979282640482798
2920.0,-0.0025008800500765423
2924.0,-0.013915288254481318
2928.0,-0.01591109559384799
2932.0,-0.005266146767500101
2936.0,0.019556456207587242
2940.0,-0.008779247851483617
2944.0,0.012227532625937364
2948.0,0.028282160553961603
2952.0,-0.0008892071840315352
2956.0,-0.011399285685255198
2960.0,-0.007147577117768985
2964.0,-0.005538098205345534
2968.0,-0.007610242156554913
2972.0,0.006020619539151042
2976.0,-0.005270929969566431
2980.0,0.005334533332076761
2984.0,0.0077575802135685205
2988.0,0.004311587431144571
2992.0,0.005663767067420239
2996.0,0.01801959751812633
3000.0,-0.002082138346917093
3004.0,-0.044152260843088514
3008.0,-0.06465283548009014
3012.0,-0.11022534654530304
3016.0,-0.13028452099640672
3020.0,-0.0032354151019760658
3024.0,0.17624628906028203
3028.0,0.36863468576652564
3032.0,0.543485373054046
3036.0,0.7191046861970755
3040.0,0.9186786813379068
3044.0,0.7224430244080309
3048.0,0.5238754197815432
3052.0,0.34964635376425357
3056.0,0.17578629225718145
3060.0,-0.0034097720478926826
3064.0,-0.05299201157328137
3068.0,-0.13761176072997278
3072.0,-0.19062339732431766
3076.0,-0.283613048693661
3080.0,-0.20687009561736483
3084.0,-0.1378000329279368
3088.0,-0.0674742772430267
3092.0,0.009720389198954184
3096.0,0.004624311028875812
3100.0,-0.007061895467176418
3104.0,-0.008776269256532002
3108.0,0.0024226862018028456
3112.0,-0.0011038938630700255
3116.0,0.00572501470137104
3120.0,0.00831772518588705
3124.0,-0.0029023464495566602
3128.0,0.01240176684415484
3132.0,-0.017188334355993443
3136.0,-0.00576101126256462
3140.0,0.031353278440391624
3144.0,0.010185877833705718
3148.0,-0.009234519656377343
3152.0,0.0054988734841010314
3156.0,-0.013563286985107288
3160.0,-0.006470044577585149
3164.0,-0.00645173184904257
3168.0,-0.0049680559485848095
3172.0,0.0006154747860476254
3176.0,0.009313091609981491
3180.0,-0.007555974112617437
3184.0,-0.0023402670867461593
3188.0,0.0034962655938999675
3192.0,0.0051100396847874275
3196.0,-0.004423641911502509
3200.0,-0.01118793548329965
3204.0,0.030159933663623406
3208.0,0.044239687453028524
3212.0,0.08033456297212188
3216.0,0.1277396268992171
3220.0,0.13625215588728468
3224.0,0.16524756870107243
3228.0,0.18200187981660873
3232.0,0.1915694893574735
3236.0,0.2119528694580177
3240.0,0.23229572251024463
3244.0,0.22882300944784714
3248.0,0.2526613543359597
3252.0,0.2660066691692988
3256.0,0.2755022046143325
3260.0,0.005417881981876637
3264.0,0.006174028122452763
3268.0,-0.016651471533610036
3272.0,-0.004427247778041395
3276.0,0.006389899121072944
3280.0,-0.024440057820097012
3284.0,-0.02966692541873285
3288.0,-0.015162850679241524
3292.0,-0.01015731161152354
3296.0,-0.01569801377741039
3300.0,-0.009145604302467641
3304.0,0.019951731054138885
3308.0,0.02901613916714952
3312.0,0.06679602723200602
3316.0,0.10313930533453024
3320.0,0.11119868429946878
3324.0,0.1323179240758076
3328.0,0.14951783658147635
3332.0,0.16387413728636047
3336.0,0.18639433630902694
3340.0,0.1564833791376206
3344.0,0.1592706332819057
3348.0,0.17719036127477836
3352.0,0.1783896890362667
3356.0,0.13612603686340297
3360.0,0.134232864262829
3364.0,0.11809193122967188
3368.0,0.09322405028785143
3372.0,0.05724834966755768
3376.0,0.02968569127766259
3380.0,0.0014811135086007946
3384.0,-0.012125061793279412
3388.0,-0.014326606850696933
3392.0,-0.009514017406554349
3396.0,0.0020268246603752063
3400.0,0.017984148601469283
3404.0,-0.011864474741907638
3408.0,-0.0038954665553918954
3412.0,-0.01502859333795129
3416.0,0.013866416125514048
3420.0,0.000510188232098852
3424.0,0.01437705623214085
3428.0,0.007733601711934565
3432.0,-0.006123528968853085
3436.0,-0.007747183206618233
3440.0,0.00856957739520003
3444.0,-0.009690226071900508
3448.0,-0.0029997531415157028
3452.0,-0.008684310394702103
3456.0,-0.004117660086696772
3460.0,-0.005978705897218323
3464.0,-0.05527085923163853
3468.0,-0.07997843681664844
3472.0,-0.10887667411679824
3476.0,-0.14125002088823466
3480.0,-0.013514550458097095
3484.0,0.17664337160166793
3488.0,0.3683401207982634
3492.0,0.5284318766093512
3496.0,0.7181370735794299
3500.0,0.9172956915911009
3504.0,0.722892851375677
3508.0,0.5436990174987754
3512.0,0.35597320552051953
3516.0,0.19980207620809393
3520.0,0.016879920259795546
3524.0,-0.0704444494609393
3528.0,-0.11842611527146829
3532.0,-0.205009730845617
3536.0,-0.2661336652156195
3540.0,-0.19281803543229042
3544.0,-0.12361967573434529
3548.0,-0.08878612313933265
3552.0,0.004081215371142533
3556.0,-0.008290303133226809
3560.0,0.00017036923744154168
3564.0,0.004347226896947759
3568.0,0.02057749570228126
3572.0,-0.009417618139708211
3576.0,0.014167198144162306
3580.0,-0.010053814721578713
3584.0,0.0016946606051291896
3588.0,0.012468719362343877
3592.0,-0.0037154735083592973
3596.0,-0.019800143370176243
3600.0,0.0047731497889839354
3604.0,0.005395086550521221
3608.0,0.009783497605198942
3612.0,-0.006334915597053232
3616.0,0.004810773858521396
3620.0,0.003584839693456435
3624.0,0.008257473020868362
3628.0,0.0073805440193788876
3632.0,-0.0029405020618388433
3636.0,-0.009572114957337646
3640.0,-0.011574899586750405
3644.0,0.0071097196207711676
3648.0,-0.0022811137548086843
3652.0,0.01534899404812816
3656.0,-0.0015515589441500036
3660.0,0.019197289239010956
3664.0,0.020197999604900794
3668.0,0.04856392682133443
3672.0,0.08123055246531591
3676.0,0.1089006668820842
3680.0,0.16577290381508264
3684.0,0.17954160763373905
3688.0,0.2057030795029145
3692.0,0.20413724903313976
3696.0,0.21608244964467566
3700.0,0.22646299559982483
3704.0,0.2525336029056123
3708.0,0.2611967442692881
3712.0,0.26329403046691163
3716.0,0.2545583531292649
3720.0,-5.874085787427712e-05
3724.0,-0.0017757363527311377
3728.0,-0.008491379545814469
3732.0,0.01559410005607827
3736.0,0.0002687467456532624
3740.0,0.004519337283987838
3744.0,-0.0017569958187607418
3748.0,-0.004689243234859139
3752.0,0.004552290217966641
3756.0,0.01642765247949026
3760.0,-0.00292271818162847
3764.0,0.03527720536886835
3768.0,0.07603411567820598
3772.0,0.07621097198148724
3776.0,0.10600261590667862
3780.0,0.15227017168465506
3784.0,0.1380171448443071
3788.0,0.14194248723996603
3792.0,0.17359364322536347
3796.0,0.17584763093840597
3800.0,0.17453118068383272
3804.0,0.16469782616887957
3808.0,0.18844092069187007
3812.0,0.16206502371920986
3816.0,0.13077364725205776
3820.0,0.11856759781034465
3824.0,0.12474059685127908
3828.0,0.09409298041627293
3832.0,0.04401160763818433
3836.0,0.040260194289535256
3840.0,0.0001515738566826932
3844.0,0.013236117189436646
3848.0,0.028010169056595178
3852.0,-0.009878367196857972
3856.0,-0.008695348913630354
3860.0,-0.005383703699282958
3864.0,-0.015448973718709512
3868.0,-0.004279114396671858
3872.0,-0.004522634901712819
3876.0,-0.0025368280259820807
3880.0,0.010801562947804818
3884.0,-0.005509839495869482
3888.0,0.002289123482654639
3892.0,0.006582657616792628
3896.0,-0.009497212888644902
3900.0,-0.011598036432481562
3904.0,-0.005561503560980125
3908.0,0.013868036566257055
3912.0,-0.0020621049444006175
3916.0,-0.006181941057559977
3920.0,0.010028440806230778
3924.0,-0.02049199041532635
3928.0,-0.061628845459077375
3932.0,-0.10658032804698368
3936.0,-0.13903128833789918
3940.0,-0.021111113907096937
3944.0,0.1746439839161934
3948.0,0.37224086015696545
3952.0,0.5402169375028368
3956.0,0.736764704115743
3960.0,0.9097921358254325
3964.0,0.719617998540854
3968.0,0.5499336773367806
3972.0,0.3634265352956531
3976.0,0.17519826223026863
3980.0,0.008028505157762168
3984.0,-0.06207376811212058
3988.0,-0.13988871378788478
3992.0,-0.19362249630594097
3996.0,-0.28168343376923766
4000.0,-0.21452672803930964
4004.0,-0.1341525369988469
4008.0,-0.05498915086133125
4012.0,-0.00041541096445481984
4016.0,0.0008986109325826033
4020.0,0.01881262200570946
4024.0,0.012115690362152655
4028.0,-0.0046925272982975405
4032.0,-0.008908613731027741
4036.0,-0.011235468687353218
4040.0,-0.01616733357944538
4044.0,-0.0010768182272485004
4048.0,-0.011258866883398375
4052.0,-0.004865572529507786
4056.0,0.0020698535080549947
4060.0,0.00957181962261853
4064.0,0.007240690322530285
4068.0,0.007417040418048588
4072.0,-0.009164615804567936
4076.0,-0.002162799066714548
4080.0,0.0019595506663542327
4084.0,0.004765091094295668
4088.0,-0.005350641851269167
4092.0,-0.0006752475202789908
4096.0,0.009104215565694861
4100.0,0.008391432333733432
4104.0,0.008989982287578123
4108.0,0.0007273845214352213
4112.0,0.0013081109155844133
4116.0,-0.003843587386752294
4120.0,-0.008892308624839794
4124.0,0.025795508110328956
4128.0,0.0736533191517433
4132.0,0.07422958428378851
4136.0,0.10276905971583931
4140.0,0.14445128501929005
4144.0,0.16404959544247466
4148.0,0.17631632415699494
4152.0,0.21009185501969269
4156.0,0.1999192284447484
4160.0,0.236873170029923
4164.0,0.24120893511509178
4168.0,0.25474245204211937
4172.0,0.2696487836230832
4176.0,0.27733099013639506
4180.0,-0.016524745805044355
4184.0,-0.005525255416014566
4188.0,-0.005096861877564922
4192.0,0.0037450970648277584
4196.0,0.006383619226635642
4200.0,0.014197644053976798
4204.0,0.0007951151558035268
4208.0,0.005019489300325669
4212.0,-0.009655584369195695
4216.0,0.008674533871360296
4220.0,-0.007442092156573404
4224.0,0.037163074356692506
4228.0,0.04980638395650446
4232.0,0.06400121035247507
4236.0,0.10944606091869344
4240.0,0.13866552323368952
4244.0,0.1676493069142564
4248.0,0.1654976951051467
4252.0,0.17303243306884836
4256.0,0.18208164837571522
4260.0,0.19035720064951367
4264.0,0.18105565352025668
4268.0,0.17109375393776316
4272.0,0.1613994763360312
4276.0,0.14400741976001877
4280.0,0.1269695848366706
4284.0,0.09606873038567264
4288.0,0.09314537926772559
4292.0,0.03865214457433263
4296.0,0.03656612070669393
4300.0,-0.010726337305516006
4304.0,0.0028110223498064614
4308.0,0.013856099961580045
4312.0,0.0012887834457390745
4316.0,0.011030964047585532
4320.0,0.00348172233696543
4324.0,-0.002865128340148382
4328.0,-0.005846865670826697
4332.0,0.014630002924860393
4336.0,-0.0005140052107624048
4340.0,0.0019518791614723328
4344.0,-0.012979751173251633
4348.0,0.0029345802057070005
4352.0,0.019007886165380475
4356.0,0.0066114667337832155
4360.0,0.0022095182387483463
4364.0,-0.009788011034870264
4368.0,0.010409856439973482
4372.0,-0.004464185732372384
4376.0,0.00354930249029535
4380.0,-0.0009845614829509417
4384.0,-0.022662531078072083
4388.0,-0.06700639965561557
4392.0,-0.10652805948909735
4396.0,-0.14641834133341913
4400.0,0.005086749836317071
4404.0,0.18532439103556303
4408.0,0.35107740832702666
4412.0,0.5622944270709447
4416.0,0.720943874718128
4420.0,0.9020333409020331
4424.0,0.7271758646509054
4428.0,0.5205486403717399
4432.0,0.3660916023724026
4436.0,0.16021356009630525
4440.0,-0.010708094521748
4444.0,-0.08189785937058042
4448.0,-0.1145488651616818
4452.0,-0.20137719735559254
4456.0,-0.2695126422330503
4460.0,-0.20146480926780283
4464.0,-0.13444037997315636
4468.0,-0.04303927217266846
4472.0,0.0016650037682601196
4476.0,0.016699042577598043
4480.0,-0.004087494094978394
4484.0,-0.0012417827786697416
4488.0,0.009577592700814779
4492.0,-0.013763921352460637
4496.0,-0.0003494062272239594
4500.0,-0.0010369914770760357
4504.0,-0.007854778259705666
4508.0,0.006621420065118757
4512.0,-0.021271877755068055
4516.0,0.004391592870051026
4520.0,-0.005588380241560897
4524.0,0.004018829553825967
4528.0,-0.0046743625626051695
4532.0,0.003680786763172555
4536.0,-0.005198741561241208
4540.0,-0.00407395848207514
4544.0,0.0055463953296068826
4548.0,-0.018162554836968353
4552.0,0.007329213758358694
4556.0,0.011348754826017304
4560.0,0.012601191106156647
4564.0,-0.012115986698608446
4568.0,0.00440510655373278
4572.0,0.012683359928188746
4576.0,0.003987637874742772
4580.0,0.007190022431371905
4584.0,0.010916337733279616
4588.0,0.06597537639012901
4592.0,0.07466582253156555
4596.0,0.12930656624500564
4600.0,0.11526351343376122
4604.0,0.1585878311302569
4608.0,0.1675606978277763
4612.0,0.19302353996033894
4616.0,0.20757175652957838
4620.0,0.2461700279041729
4624.0,0.2494359336089388
4628.0,0.2547967081297555
4632.0,0.26034362822357915
4636.0,0.25580306649372997
4640.0,-0.0029818887868917894
4644.0,-0.008126223758173937
4648.0,0.003552037548471923
4652.0,-0.011923547482027164
4656.0,-0.009734995033533082
4660.0,-0.0013444700232477563
4664.0,0.007773713971158093
4668.0,-0.0046897840705149
4672.0,-0.012074381070183328
4676.0,0.0004938948817075542
4680.0,-0.0024793114549206763
4684.0,0.021929012852912988
4688.0,0.0503269089251898
4692.0,0.07012786404904785
4696.0,0.11962240638685787
4700.0,0.1527812625054562
4704.0,0.15868161017576882
4708.0,0.15541685340976757
4712.0,0.16674051933498676
4716.0,0.16561242379865296
4720.0,0.1797704122293031
4724.0,0.18315389722549613
4728.0,0.15661551312222372
4732.0,0.16447401630734576
4736.0,0.15502177430782269
4740.0,0.10883476625843115
4744.0,0.11577194923680256
4748.0,0.08622748490445403
4752.0,0.07659673154447946
4756.0,0.01733912191404422
4760.0,0.006876948635980723
4764.0,-0.0008873993211065945
4768.0,0.0019290735183259725
4772.0,0.004742547164705791
4776.0,-0.005173469362342971
4780.0,-6.738484173830283e-05
4784.0,-0.007627765631953316
4788.0,-0.017184323119736993
4792.0,-0.011585061957768353
4796.0,-0.01162717111628322
4800.0,-3.581333880716445e-05
4804.0,0.008159801138529956
4808.0,-0.009076356544447838
4812.0,0.011768416871571792
4816.0,0.0022198367797985116
4820.0,0.0012192255720471453
4824.0,0.0037589132176354444
4828.0,-0.010041967721998427
4832.0,-0.009650339460150977
4836.0,-0.0016272165283451488
4840.0,-0.006270925710223649
4844.0,-0.01403460097848385
4848.0,-0.07429490314194792
4852.0,-0.08799994409688336
4856.0,-0.15783039294165765
4860.0,-0.0020938287625926694
4864.0,0.17411237905047022
4868.0,0.35690408989285183
4872.0,0.5435267455157565
4876.0,0.7133577636264941
4880.0,0.9125550693166677
4884.0,0.7114255270338352
4888.0,0.5630249501616712
4892.0,0.38074713948399147
4896.0,0.18374553108607394
4900.0,-0.013490000094876593
4904.0,-0.08330752421289979
4908.0,-0.1363532283466968
4912.0,-0.2014717890873037
4916.0,-0.2652691834019414
4920.0,-0.2082676408789947
4924.0,-0.1389154472934461
4928.0,-0.08110273314622593
4932.0,0.013972129876315355
4936.0,0.006575550541697398
4940.0,0.011547361894840784
4944.0,-0.003232353048561577
4948.0,0.021109745004472154
4952.0,0.01028850887585999
4956.0,-0.002400421352503951
4960.0,-0.021900481507744964
4964.0,0.014161378619921356
4968.0,0.006091993961528345
4972.0,-0.004971345640583208
4976.0,-0.0025603716775294254
4980.0,0.011400345452496132
4984.0,0.010002452152974812
4988.0,-0.003931689677200185
4992.0,0.0041932415766688805
4996.0,0.011064460311341617
5000.0,-0.00492372189489163
5004.0,-0.003963276622298392
5008.0,-0.0012509271250899661
5012.0,0.003831767596686408
5016.0,-0.005325699333436423
5020.0,0.010439974628782076
5024.0,0.004688661827118368
5028.0,0.003933910197089478
5032.0,0.012011991421784314
5036.0,-0.01917651531747584
5040.0,0.031375866209170544
5044.0,0.036961402925743375
5048.0,0.05021221536970029
5052.0,0.09392658889910592
5056.0,0.10033788677081469
5060.0,0.13059373374399458
5064.0,0.1546999541535028
5068.0,0.19210421743093128
5072.0,0.21053285633432678
5076.0,0.22839922793485848
5080.0,0.23209146986780596
5084.0,0.24695312337263528
5088.0,0.26193493795175743
5092.0,0.2606753043097721
5096.0,0.27374242833232676
5100.0,0.0044476950262191065
5104.0,-0.00033814185298850776
5108.0,-0.0034590549508220596
5112.0,-0.01250783143459892
5116.0,0.01374930376139225
5120.0,-0.012252163203831856
5124.0,-0.02393126856134312
5128.0,0.005432081792777726
5132.0,-0.002292427466989353
5136.0,-0.00816986835912058
5140.0,0.012800548261384066
5144.0,0.02082128395689586
5148.0,0.04022078944981416
5152.0,0.07177638642812847
5156.0,0.11681866568140403
5160.0,0.12526316593784886
5164.0,0.1501501608438509
5168.0,0.16401067970167824
5172.0,0.1628233836429072
5176.0,0.19545523803860504
5180.0,0.1866062484809792
5184.0,0.1839780134753215
5188.0,0.18355265265156875
5192.0,0.15006112335441815
5196.0,0.13978266561144417
5200.0,0.13542683530363803
5204.0,0.0952194979612417
5208.0,0.07997704987637859
5212.0,0.041807147432448524
5216.0,0.040815661991736626
5220.0,0.00813928374365529
5224.0,0.02019593043666146
5228.0,-0.005459618729932834
5232.0,-0.0002471445416976957
5236.0,-0.004808144790906789
5240.0,-0.0021831758011321084
5244.0,0.00814104500994811
5248.0,0.01293765679625218
5252.0,-0.0016266591395989309
5256.0,-0.009409008145479236
5260.0,-0.006223997657139332
5264.0,-0.00340591304798199
5268.0,-0.02834886638256417
5272.0,-0.0036331617906383445
5276.0,0.008845901535179383
5280.0,-0.016605308331809135
5284.0,-0.0036207930648858274
5288.0,-0.01492280832354153
5292.0,-0.005539421616920349
5296.0,0.002437979704929936
5300.0,-0.0011465652261303141
5304.0,-0.038555274293757415
5308.0,-0.07049424242226406
5312.0,-0.10160419280085031
5316.0,-0.14038749422730842
5320.0,0.007239996848261536
5324.0,0.17014001406128007
5328.0,0.3749860881786003
5332.0,0.5416364071710847
5336.0,0.7338207057925089
5340.0,0.8936706897856957
5344.0,0.7254715179739121
5348.0,0.5552165791720632
5352.0,0.36400420393967514
5356.0,0.17958457067340344
5360.0,0.00859466526879854
5364.0,-0.05689177642414123
5368.0,-0.14396603351063247
5372.0,-0.20764691376950947
5376.0,-0.28256804826319415
5380.0,-0.1782027856886571
5384.0,-0.14496803617935738
5388.0,-0.07856038840836772
5392.0,-0.0052528752459175465
5396.0,-0.007222424608141424
5400.0,0.005740170456950245
5404.0,0.008315987329813552
5408.0,-0.018440901898706296
5412.0,0.0195999845697865
5416.0,-0.012495837448726748
5420.0,-0.015790511841875656
5424.0,-0.015471212534187635
5428.0,-0.010793396796423936
5432.0,0.0010395613016672468
5436.0,0.0009567041169516821
5440.0,-0.00041598787841384593
5444.0,-0.025696039517405747
5448.0,-0.005803750299906841
5452.0,0.011361188925826661
5456.0,0.007254247511244982
5460.0,0.010851545266578222
5464.0,0.0011339396512976983
5468.0,0.0018951172900215612
5472.0,-0.0064937849417848305
5476.0,-0.015984291275553727
5480.0,0.01040122060060657
5484.0,0.0035702503499119922
5488.0,-0.008493990646447147
5492.0,-0.009563527832499637
5496.0,0.0019349282292641654
5500.0,0.006322750788958249
5504.0,0.03957847755207927
5508.0,0.06045529003252607
5512.0,0.08659847927846287
5516.0,0.11817396007830513
5520.0,0.11670227255012562
5524.0,0.1454365069848352
5528.0,0.19109067272070185
5532.0,0.1816276402330817
5536.0,0.2239822435341058
5540.0,0.24161907311617206
5544.0,0.23468830753166706
5548.0,0.23632437387889402
5552.0,0.2602090498654389
5556.0,0.24983763108245835
5560.0,-0.0025873767473583594
5564.0,0.018688960175255398
5568.0,0.004947755507273323
5572.0,0.002894077911941409
5576.0,-0.0034651052638061787
5580.0,-0.008414916339840981
5584.0,-0.0011741683890645815
5588.0,0.006560282588300485
5592.0,0.006878216273698005
5596.0,-0.021456176074001992
5600.0,-0.018753864688259278
5604.0,0.021163773047720064
5608.0,0.06585229568411466
5612.0,0.09326097879197283
5616.0,0.1254963676359711
5620.0,0.1433125910215825
5624.0,0.14619806459285148
5628.0,0.16467302192036187
5632.0,0.1700022786243188
5636.0,0.1796468579155864
5640.0,0.1811154937856228
5644.0,0.1790635622073752
5648.0,0.15862031306288676
5652.0,0.16747013062752902
5656.0,0.14771624676624429
5660.0,0.12400358773905792
5664.0,0.10591149551622421
5668.0,0.06840206703693621
5672.0,0.05690326069670399
5676.0,0.04033608881882128
5680.0,0.0013238319068032273
5684.0,-0.003810793476394278
5688.0,-0.013702237288485991
5692.0,0.001663976033180159
5696.0,-0.001765750826118073
5700.0,0.005312147064932401
5704.0,0.015998926451171618
5708.0,-0.014458061071349646
5712.0,0.007928921290295422
5716.0,-0.017025955356116857
5720.0,-0.012624692556341015
5724.0,0.008419509721816598
5728.0,0.006297465340680489
5732.0,0.010266880493212338
5736.0,0.008029996463162044
5740.0,-7.617529640625724e-05
5744.0,-0.0033648246387000813
5748.0,-0.0008190871423083715
5752.0,0.00442413578595588
5756.0,0.008891096422582926
5760.0,-0.012167838627685189
5764.0,-0.03022723384710748
5768.0,-0.06960754489123314
5772.0,-0.1117267236583673
5776.0,-0.1474518012199815
5780.0,0.01210020614711863
5784.0,0.17727790661447748
5788.0,0.3635596620588443
5792.0,0.5389358750165805
5796.0,0.729119856342673
5800.0,0.8979978581478272
5804.0,0.697771831664199
5808.0,0.5308366726452682
5812.0,0.36201338709222963
5816.0,0.17615251046841537
5820.0,0.004502081039631714
5824.0,-0.0681235292220811
5828.0,-0.14609920984582048
5832.0,-0.20034497996647166
5836.0,-0.2599462010146657
5840.0,-0.19558241008062668
5844.0,-0.1412235156684649
5848.0,-0.07522623375216046
5852.0,-0.004484516005117189
5856.0,0.009251329640262502
5860.0,0.013729680268835243
5864.0,0.005195067919353092
5868.0,0.017380475648523533
5872.0,0.0027825630310776427
5876.0,0.006022456271871479
5880.0,0.008426326579325216
5884.0,-0.009254903709954137
5888.0,0.0053164468762729915
5892.0,0.0025791233710493666
5896.0,0.020283136227686672
5900.0,0.0056025624147829035
5904.0,0.022042724083537288
5908.0,-0.0026214473740164045
5912.0,0.0007943056316454014
5916.0,-0.016064956778029306
5920.0,-0.0013308358998885784
5924.0,0.014317441646757426
5928.0,0.01285207935003273
5932.0,-0.0015655017529088767
5936.0,-0.011542667112845975
5940.0,0.00391431700070227
5944.0,-0.006071802160875795
5948.0,0.006399710130304912
5952.0,0.004499670653335612
5956.0,0.0022089005077825514
5960.0,-0.005840561383153668
5964.0,0.034229443674721305
5968.0,0.07506904192805586
5972.0,0.07512570568992019
5976.0,0.10317281142222333
5980.0,0.13913980132041187
5984.0,0.15984255656793303
5988.0,0.1797249401166704
5992.0,0.20467777395464914
5996.0,0.225139755680716
6000.0,0.22465821101949546
6004.0,0.24862986435774395
6008.0,0.24994346916264654
6012.0,0.2685476094582314
6016.0,0.28217285088157834
6020.0,0.013012693195797193
6024.0,-0.01744161692375557
6028.0,0.016366869499308927
6032.0,-0.006690309538324254
6036.0,-0.005340035913038099
6040.0,0.010018828513728498
6044.0,-0.003102267354156779
6048.0,-0.010506610899608373
6052.0,0.004616032036353853
6056.0,0.019440811384117063
6060.0,-0.010936152354751968
6064.0,0.01815450503492725
6068.0,0.05831846618125253
6072.0,0.0885909509292864
6076.0,0.1078333509345454
6080.0,0.1368298975342763
6084.0,0.13792586301887105
6088.0,0.15816395574947714
6092.0,0.15347198242054638
6096.0,0.18122136174166414
6100.0,0.17297868686979495
6104.0,0.17612025606064632
6108.0,0.1656088541736186
6112.0,0.16021982532030915
6116.0,0.14281104563479863
6120.0,0.12708472066861734
6124.0,0.10829105676883621
6128.0,0.07938145609349057
6132.0,0.07478225533244787
6136.0,0.04481685780987102
6140.0,0.006484529845061352
6144.0,-0.00843452222604282
6148.0,-0.010299295170194341
6152.0,-0.00699986414910133
6156.0,0.005167141978375399
6160.0,0.004810966910342776
6164.0,0.010061632071166908
6168.0,0.0115080699486751
6172.0,0.010804891162882569
6176.0,0.013992551573529821
6180.0,-0.0033913912141936343
6184.0,-0.015005664812245507
6188.0,-0.0013898499286545396
6192.0,0.0011928499669052236
6196.0,-0.0034545679772562937
6200.0,0.01679317114406518
6204.0,0.005702865747171775
6208.0,-0.016176131239761186
6212.0,0.0008263547233682065
6216.0,0.008477250171810908
6220.0,0.0045446867197432485
6224.0,-0.037058530824157984
6228.0,-0.07949203673688807
6232.0,-0.10911872660995159
6236.0,-0.17676803279341952
6240.0,0.011298133996550094
6244.0,0.17882193989631914
6248.0,0.3634172582150723
6252.0,0.5441856238712172
6256.0,0.7164326489149485
6260.0,0.9097483303224145
6264.0,0.7096116806470155
6268.0,0.5499430182030457
6272.0,0.3911437911333665
6276.0,0.17213580004938855
6280.0,-0.0008693054997026488
6284.0,-0.0663249995010408
6288.0,-0.12918008257135294
6292.0,-0.20623720753733432
6296.0,-0.27136155618866
6300.0,-0.20630617115379596
6304.0,-0.1263663183043095
6308.0,-0.051738576585678035
6312.0,0.0034574187375879424
6316.0,-0.00552917613147769
6320.0,0.004928699844629208
6324.0,0.00459775277766238
6328.0,-0.0029016283077306433
6332.0,-0.002201425186456225
6336.0,0.011560619662570522
6340.0,0.018429360803445708
6344.0,0.013526906683842706
6348.0,-0.001389768252781069
6352.0,0.03168505405099621
6356.0,-0.004902645383287
6360.0,0.0025364653467859
6364.0,0.004134510720711523
6368.0,-0.006394274797024927
6372.0,0.0012620362891019585
6376.0,0.0011125994245052408
6380.0,-0.0029089763732807567
6384.0,-0.0018607819567676952
6388.0,0.0011075859242856592
6392.0,0.014049807602921016
6396.0,0.013118233575274377
6400.0,0.01331965348409867
6404.0,0.0009028441459212663
6408.0,0.0018879131444589665
6412.0,0.012090045867517498
6416.0,-0.001002694765867473
6420.0,-0.014547004144041364
6424.0,0.033929269409258125
6428.0,0.03851158141272183
6432.0,0.0799938709033326
6436.0,0.10608566425145483
6440.0,0.1280549714718524
6444.0,0.15475489101520334
6448.0,0.17464615632519748
6452.0,0.2013510827154575
6456.0,0.20051293209636278
6460.0,0.23697901651830836
6464.0,0.26042659262898965
6468.0,0.24567449701022162
6472.0,0.27627006534890247
6476.0,0.2619054409267369
6480.0,-0.01571673805026007
6484.0,0.006924944595205223
6488.0,-0.015936765210284417
6492.0,-0.03603827336361294
6496.0,-8.162658666616127e-05
6500.0,0.007525011610279064
6504.0,-0.019511611972002744
6508.0,-0.0028877731853107435
6512.0,0.007125797226075911
6516.0,0.03448323402168581
6520.0,-0.005709152020983579
6524.0,0.025326731882112645
6528.0,0.0572597412048278
6532.0,0.07052438782580288
6536.0,0.13574317864303725
6540.0,0.12532218202869164
6544.0,0.1432120742027435
6548.0,0.15913861092742138
6552.0,0.17579176078112374
6556.0,0.18317454589146448
6560.0,0.16830091602874264
6564.0,0.18576619938028505
6568.0,0.17942460065014643
6572.0,0.1653925767157332
6576.0,0.13736212187301622
6580.0,0.14091433747664683
6584.0,0.11188273626992527
6588.0,0.09788891225342825
6592.0,0.06655116069925986
6596.0,0.015153300281686839
6600.0,0.0074043810051588246
6604.0,0.007391259229159859
6608.0,-0.006041709547514366
6612.0,-0.004499103904809251
6616.0,0.024459913890204476
6620.0,-0.01443194688276362
6624.0,0.021932640156858935
6628.0,-0.013115174575873445
6632.0,0.013814487976990029
6636.0,-0.010175883041830081
6640.0,0.0017372327346793781
6644.0,-0.0021866685370346187
6648.0,-0.016601926127614616
6652.0,0.0012509687528194458
6656.0,-0.0025896825573098175
6660.0,0.003242222636114126
6664.0,0.004617681307383031
6668.0,-0.0023917386099141826
6672.0,0.004650402207312265
6676.0,-0.009353856265003695
6680.0,-0.001936507692919397
6684.0,-0.042213954368461794
6688.0,-0.06810815166831875
6692.0,-0.11264726911038524
6696.0,-0.1536551215548815
6700.0,-0.015214409456923997
6704.0,0.1863946818179017
6708.0,0.3552699110432418
6712.0,0.5337342616884616
6716.0,0.7014224374941106
6720.0,0.890080070236954
6724.0,0.7356301950693519
6728.0,0.5498572468838501
6732.0,0.3661225042954579
6736.0,0.16982691517405446
6740.0,0.015728039218184033
6744.0,-0.0650428521934565
6748.0,-0.13605914243939285
6752.0,-0.21299539528890638
6756.0,-0.2652349374833663
6760.0,-0.20205101653918825
6764.0,-0.14586385422679854
6768.0,-0.08021294908309173
6772.0,-0.012888848837467761
6776.0,-0.00045931453925584636
6780.0,-0.015432291686403034
6784.0,0.011569695598486788
6788.0,-0.013315959763175603
6792.0,0.0015301265935112256
6796.0,0.00739996347557349
6800.0,0.0032799601548822964
6804.0,0.005774119234973798
6808.0,0.017276153819983292
6812.0,-0.015761680833939255
6816.0,-0.002496039276387614
6820.0,0.00888547150712239
6824.0,0.007211273416815475
6828.0,-0.009074925054873523
6832.0,0.011766903859486587
6836.0,-0.00135770887403335
6840.0,0.013028028270780086
6844.0,0.004643855226113408
6848.0,0.012956588781044632
6852.0,0.012501211292349941
6856.0,-0.004424872326910192
6860.0,0.000900158363201259
6864.0,-0.005828676975590437
6868.0,-0.003558341042806527
6872.0,0.0063255257733290365
6876.0,-0.007570753907702017
6880.0,-0.0072333834741019
6884.0,0.021605050724498868
6888.0,0.04925943130268977
6892.0,0.09600168534236041
6896.0,0.0988392188418412
6900.0,0.1507033705595846
6904.0,0.15101418788597648
6908.0,0.19189625487191656
6912.0,0.20078659350149478
6916.0,0.22611343990951266
6920.0,0.22767833034937626
6924.0,0.23359001843161037
6928.0,0.2649814307349906
6932.0,0.27090278758231784
6936.0,0.27658673630857816
6940.0,-0.012061640091202475
6944.0,0.008225278532463812
6948.0,-0.00019860522754338556
6952.0,0.013354411866354767
6956.0,-0.002833712443578169
6960.0,0.0034723546201977868
6964.0,-0.00873974917432285
6968.0,0.00512898962196904
6972.0,0.002448973467688049
6976.0,0.02017298739759493
6980.0,-0.0010393267471900639
6984.0,0.033492574784043605
6988.0,0.03665722096962955
6992.0,0.07836113203697133
6996.0,0.10699026199568464
7000.0,0.14387734317876075
7004.0,0.15249030127743088
7008.0,0.16859630648696314
7012.0,0.16162625593308033
7016.0,0.18687513821345472
7020.0,0.17529081150968637
7024.0,0.16278685823061337
7028.0,0.16040107720288013
7032.0,0.1738967598473765
7036.0,0.14585233235955253
7040.0,0.11020133364031409
7044.0,0.10684651410001565
7048.0,0.07406712418710344
7052.0,0.05992753676709042
7056.0,0.013062083306220662
7060.0,-0.0018233122018730692
7064.0,0.0018266504076042283
7068.0,0.008306130532921362
7072.0,0.007255985165952495
7076.0,0.00796369620834804
7080.0,0.0004960530326658815
7084.0,-0.004496694686688827
7088.0,0.009799445083906587
7092.0,0.0019945380755624414
7096.0,-0.005060038580388008
7100.0,0.0053654137039167524
7104.0,-0.009718995823810507
7108.0,0.002322249149386836
7112.0,-0.004369665016657207
7116.0,0.0015682373815438363
7120.0,-0.005085545944428069
7124.0,0.004634666301868862
7128.0,0.004595032418385739
7132.0,-0.012164417563829855
7136.0,-0.006409533585198805
7140.0,0.017927274447333916
7144.0,-0.031175582400759197
7148.0,-0.07322562651655606
7152.0,-0.10376430588873273
7156.0,-0.14773606702506523
7160.0,-0.014493093100319295
7164.0,0.17207837558852002
7168.0,0.3709150741400736
7172.0,0.5295824167716604
7176.0,0.7263885760977686
7180.0,0.8963158602467457
7184.0,0.7164585546308171
7188.0,0.5487379733045965
7192.0,0.33975949229154934
7196.0,0.19577340071068752
7200.0,0.008480360016767831
7204.0,-0.05580405428121041
7208.0,-0.13347781751658538
7212.0,-0.2112159519454828
7216.0,-0.25738089651845647
7220.0,-0.18581448721092247
7224.0,-0.139886777837262
7228.0,-0.07161774072663235
7232.0,0.008783086538284541
7236.0,-0.004437247031007512
7240.0,-0.004284437447498932
7244.0,-0.019459941381047962
7248.0,0.010121738260938993
7252.0,0.0030916111159831573
7256.0,-0.007538281069866702
7260.0,0.006902593000828735
7264.0,-0.001859630891405967
7268.0,0.012262963724282167
7272.0,-0.005530633845812051
7276.0,0.006003913399435028
7280.0,0.001194990674330183
7284.0,-0.0011098419510261917
7288.0,-0.0040719223693566585
7292.0,0.0037110491911659473
7296.0,0.013573390924208301
7300.0,5.060036538347075e-06
7304.0,-0.0008795778616524275
7308.0,-0.003278255507758362
7312.0,0.00488457238556415
7316.0,-0.0027850804637811095
7320.0,-0.009226583194067448
7324.0,0.013821845190826305
7328.0,-0.02936416040327794
7332.0,0.020251687434298983
7336.0,-0.017702832228809307
7340.0,-0.00024734326921763676
7344.0,0.014578762495435191
7348.0,0.0584817860591092
7352.0,0.07772902846645267
7356.0,0.09809833666323564
7360.0,0.13879832669860745
7364.0,0.1528999661202821
7368.0,0.18077362966920235
7372.0,0.1848154426089852
7376.0,0.22023534166498823
7380.0,0.23170710594521796
7384.0,0.2442868186170926
7388.0,0.2547393984640423
7392.0,0.2657542986896365
7396.0,0.2702629145457192
7400.0,-0.006256774523296796
7404.0,0.00411707908932741
7408.0,-0.011115740329217867
7412.0,-0.0017315989056314364
7416.0,-0.006115388972979046
7420.0,0.006270378307898897
7424.0,0.021998975835593848
7428.0,0.00550495289401567
7432.0,0.010163001808170098
7436.0,-0.0035833449033412326
7440.0,-0.011695616249806359
7444.0,0.028335372191066643
7448.0,0.06253648758495722
7452.0,0.0876928440901619
7456.0,0.11072333880308809
7460.0,0.1478459163636847
7464.0,0.15225322351466244
7468.0,0.15335652521663035
7472.0,0.16469516908668136
7476.0,0.1854078522276996
7480.0,0.19777780229858855
7484.0,0.17073049115407826
7488.0,0.1701152799116145
7492.0,0.13076986250963274
7496.0,0.16213246405062517
7500.0,0.123044188720291
7504.0,0.1245727005096686
7508.0,0.07660268681865007
7512.0,0.06262395679965643
7516.0,0.017716837342417007
7520.0,-0.0012117909101924816
7524.0,0.004950859367543985
7528.0,0.0031772095833108123
7532.0,-0.012088052403384984
7536.0,-0.00253943249451466
7540.0,0.004755763940976108
7544.0,0.003676555345657115
7548.0,0.0029469193138076466
7552.0,-0.01849056264270716
7556.0,-0.004388381916115772
7560.0,0.014977674419083306
7564.0,0.01056134326545342
7568.0,0.013480775330361966
7572.0,-0.005378005019984087
7576.0,0.00888768008615029
7580.0,0.0027428692366899578
7584.0,0.01167710854880802
7588.0,0.005355978956032569
7592.0,-0.007844276946447577
7596.0,0.0031496798280327754
7600.0,0.008826720298860436
7604.0,-0.04550254437070973
7608.0,-0.07330221575463368
7612.0,-0.10309963184847847
7616.0,-0.1416426844663511
7620.0,0.0020901997615317305
7624.0,0.17329413630263918
7628.0,0.37643696543029515
7632.0,0.5371979971232677
7636.0,0.7097286918648648
7640.0,0.8987481655271377
7644.0,0.7199881890858183
7648.0,0.5340559486073041
7652.0,0.37470965222400743
7656.0,0.16807977768486881
7660.0,0.01576969623159542
7664.0,-0.07537747648805276
7668.0,-0.1439372319160369
7672.0,-0.197851677159234
7676.0,-0.2744134170205311
7680.0,-0.20706110877634168
7684.0,-0.10984160374168515
7688.0,-0.0851605294414596
7692.0,0.0008878263913734626
7696.0,0.027421831918422717
7700.0,0.0031857681302264076
7704.0,0.009878138499499424
7708.0,-0.004283885890904881
7712.0,-0.006805576775961049
7716.0,-0.001230179115395901
7720.0,-0.007439687077802757
7724.0,0.0027678701998673674
7728.0,0.010125402213851567
7732.0,0.007119769062464083
7736.0,-0.012297306402660819
7740.0,0.006722802388013271
7744.0,-0.0024079980278939447
7748.0,0.007968676958084404
7752.0,0.004321850669710605
7756.0,-0.016413280123577595
7760.0,-0.005833946605157257
7764.0,0.003641987934835323
7768.0,-0.019933971613431002
7772.0,-0.010339360561455459
7776.0,0.003145561937506997
7780.0,0.006351874649402689
7784.0,-0.00977690510489273
7788.0,0.004477260551637452
7792.0,-0.018188359845623368
7796.0,0.0209093903124457
7800.0,0.004121943612254269
7804.0,0.014557590161303265
7808.0,0.0482150480345357
7812.0,0.07650043244345178
7816.0,0.09316191469657648
7820.0,0.13941699779083308
7824.0,0.15685749442396238
7828.0,0.19303018762356797
7832.0,0.19542509701571534
7836.0,0.2173088176416704
7840.0,0.23110060967770182
7844.0,0.24965727412725328
7848.0,0.26737638224060795
7852.0,0.2950073445870794
7856.0,0.2632910783316348
7860.0,0.0004521429328061063
7864.0,-0.014188122916798171
7868.0,-0.013863437534348363
7872.0,0.020566321195091324
7876.0,0.005966752186775939
7880.0,0.002415438467487997
7884.0,0.0011091321227438126
7888.0,-0.014432485782600809
7892.0,0.015824999286151168
7896.0,0.005370876887102658
7900.0,-0.016110332728447276
7904.0,0.010631618720137844
7908.0,0.06157738973005947
7912.0,0.06840862439116945
7916.0,0.08543788915239879
7920.0,0.1411682145357704
7924.0,0.14886407642424507
7928.0,0.15754543700644366
7932.0,0.18273935138104105
7936.0,0.1730193766032348
7940.0,0.1831909625536568
7944.0,0.17884056274203258
7948.0,0.16453144583187754
7952.0,0.16565415709401382
7956.0,0.1498634039740337
7960.0,0.1246451824425741
7964.0,0.11153200281263938
7968.0,0.09011650033326257
7972.0,0.06392782001919217
7976.0,0.018328761609165252
7980.0,0.0001664801279837778
7984.0,-0.008955057734694969
7988.0,-0.015161350715396456
7992.0,0.009580672231166367
7996.0,-0.02106645314771628
8000.0,0.013906934208706851
8004.0,0.0022371305228259526
8008.0,-0.0011397491050179126
8012.0,-0.011288372359705104
8016.0,0.01358625973254502
8020.0,0.004537332044840205
8024.0,-0.001976916153065652
8028.0,0.00305552741793634
8032.0,-0.01530798917371493
8036.0,0.0002994527027870117
8040.0,-0.01366324314786055
8044.0,0.0007741724804498549
8048.0,0.004828880779298508
8052.0,-0.024661050160638267
8056.0,-0.009999573647611839
8060.0,0.020712848140137734
8064.0,-0.03127507843825461
8068.0,-0.07868189837594114
8072.0,-0.12108995497394076
8076.0,-0.15353894584210837
8080.0,-0.001087677308193109
8084.0,0.18572759321850554
8088.0,0.3459884301925919
8092.0,0.5271756826184003
8096.0,0.7174924179050622
8100.0,0.8766505003566487
8104.0,0.722160573317408
8108.0,0.5599059098335352
8112.0,0.35935637499006035
8116.0,0.16865191962538914
8120.0,0.0020506338381832963
8124.0,-0.04609410175579863
8128.0,-0.12394430391766442
8132.0,-0.20704416024391428
8136.0,-0.26288634233849584
8140.0,-0.19969102341358627
8144.0,-0.12878380074615697
8148.0,-0.06906005754926445
8152.0,0.0021730845128735076
8156.0,-0.008742282996695725
8160.0,-0.005161559855831864
8164.0,-0.002441189308063266
8168.0,0.004256243720491682
8172.0,-0.006833457656482025
8176.0,-0.011998486605038145
8180.0,-0.0028607598953268305
8184.0,-0.0013844704865900326
8188.0,0.0041233856058181
8192.0,0.0010929136301545098
8196.0,-0.004429491421397384
8200.0,-0.0036098879745803843
8204.0,-0.007870231953678232
8208.0,0.00677365339513179
8212.0,-0.003264718720259219
8216.0,-0.01119315248603836
8220.0,0.012336984911698424
8224.0,-0.02496936568228774
8228.0,-0.006687627297803314
8232.0,0.0051203166678887415
8236.0,0.00027883600207535543
8240.0,-0.0008697622304235137
8244.0,-0.015707217817535233
8248.0,-0.0030925866495312517
8252.0,0.007042701677079479
8256.0,-0.006283941359705987
8260.0,0.00970947823520083
8264.0,0.015657271534054475
8268.0,0.06048843012658997
8272.0,0.09586431435828804
8276.0,0.09289384510531826
8280.0,0.1287815888779756
8284.0,0.1620209117872704
8288.0,0.19100233315490636
8292.0,0.19917572463949937
8296.0,0.21097090602022064
8300.0,0.23985121354425679
8304.0,0.24914874020251174
8308.0,0.26852035032677063
8312.0,0.2647772018208264
8316.0,0.2727503608349708
8320.0,0.00956110340456304
8324.0,0.0019177280774970698
8328.0,0.013869862109213245
8332.0,-0.004334959380377411
8336.0,-0.007030345513427301
8340.0,-0.000153167734601559
8344.0,0.006947944014349315
8348.0,0.014014625821743398
8352.0,0.007545420634644676
8356.0,0.0007388194818041306
8360.0,0.014883253187385639
8364.0,0.029060503534135154
8368.0,0.07207062646166593
8372.0,0.07716516389795289
8376.0,0.11973746902103984
8380.0,0.1320399583670123
8384.0,0.14963941588040242
8388.0,0.16749075671901242
8392.0,0.16613702865727936
8396.0,0.17049771999363422
8400.0,0.1834693371296216
8404.0,0.16932594111885543
8408.0,0.16558056907757737
8412.0,0.16138258378054918
8416.0,0.15273412497530534
8420.0,0.12606094549667707
8424.0,0.09571504360206107
8428.0,0.08906865762496109
8432.0,0.05526394557587827
8436.0,0.01864800805821448
8440.0,-0.014416407160214393
8444.0,-0.0012832340052276112
8448.0,-0.025402314920043648
8452.0,0.011469780398122445
8456.0,-0.005251912427235404
8460.0,0.014149412889464606
8464.0,-0.00015579214247008884
8468.0,-0.004531455412211745
8472.0,0.014816522423107728
8476.0,0.0062106263486625315
8480.0,0.010450478786786134
8484.0,0.005520691838471346
8488.0,-0.00875543090813821
8492.0,0.016377564825101845
8496.0,0.003927067413782351
8500.0,-0.011783418975937566
8504.0,-0.014349812606521602
8508.0,-0.00651991212854632
8512.0,-0.0009781717267009285
8516.0,0.009392175974684357
8520.0,-0.00864826232649807
8524.0,-0.05117929911204469
8528.0,-0.08231551285898198
8532.0,-0.1014843589628328
8536.0,-0.1453778796559097
8540.0,0.014313296747132196
8544.0,0.18038047966566087
8548.0,0.35331431201901903
8552.0,0.5570245748981603
8556.0,0.728840696628716
8560.0,0.8990992250891094
8564.0,0.7102790650424663
8568.0,0.5516911193281171
8572.0,0.3623037655531565
8576.0,0.19285308640259763
8580.0,-0.0032279158113795404
8584.0,-0.07849996999137117
8588.0,-0.11800207983767608
8592.0,-0.20352112042103007
8596.0,-0.2696764237281387
8600.0,-0.2053098531366377
8604.0,-0.14428083625945054
8608.0,-0.06506534780562112
8612.0,0.01348006159242319
8616.0,-0.013051346718435481
8620.0,0.0019272162062304902
8624.0,-0.014882811939478071
8628.0,-0.018787750242701774
8632.0,-0.015464775555521592
8636.0,0.006039309122956932
8640.0,0.010179823167568462
8644.0,0.0027757453027639563
8648.0,-0.0063683329310967466
8652.0,-0.012226697125864619
8656.0,0.0017268313637314417
8660.0,0.006303530745933335
8664.0,0.011823248427709898
8668.0,-0.001968538481015763
8672.0,0.0055888783582936485
8676.0,-0.007460449955296203
8680.0,-0.011506756066175128
8684.0,0.007429054248136902
8688.0,-0.0031795269061527403
8692.0,-0.008519863346914661
8696.0,-0.005194542951509997
8700.0,-0.013675918074589411
8704.0,-0.018816122246627924
8708.0,-0.020822816740408628
8712.0,0.012928301582866347
8716.0,-0.0006251077336971242
8720.0,-0.0021422622971889924
8724.0,0.016843032385318375
8728.0,0.06093873178717279
8732.0,0.08777776495918171
8736.0,0.12193962946342435
8740.0,0.13435949370570305
8744.0,0.15997052922266164
8748.0,0.19578151599476604
8752.0,0.19009749535080434
8756.0,0.21659097180389114
8760.0,0.22588322546564737
8764.0,0.24058212088136588
8768.0,0.2571788034834574
8772.0,0.2829243620619297
8776.0,0.2811231918502932
8780.0,0.006880200844344731
8784.0,-0.008618758651647867
8788.0,0.01589347114209729
8792.0,-0.006811999358012242
8796.0,0.0059542065579008185
8800.0,0.012492403775034893
8804.0,-0.0011418248554056509
8808.0,0.001093866286007016
8812.0,0.005175974522987519
8816.0,-0.0018340065074781624
8820.0,-0.007425846083416956
8824.0,0.038672158478770424
8828.0,0.060223615258681744
8832.0,0.09620114592138442
8836.0,0.12560060935754758
8840.0,0.12479511700201454
8844.0,0.1375380579884208
8848.0,0.14255158951238311
8852.0,0.185737222494392
8856.0,0.17951777412622555
8860.0,0.18870347700058152
8864.0,0.1812314583510333
8868.0,0.15702609753122151
8872.0,0.18005295137408456
8876.0,0.15641729018661482
8880.0,0.13143046114606352
8884.0,0.10398956916575365
8888.0,0.09252247427493077
8892.0,0.04745655689737082
8896.0,0.019395997908253436
8900.0,0.0062410942524255145
8904.0,0.01283281244463659
8908.0,0.015903972166224186
8912.0,0.009857835935338495
8916.0,0.006691634223979617
8920.0,-0.008097252567606883
8924.0,-0.010226830521526873
8928.0,0.006169671271075815
8932.0,-0.025048217383046224
8936.0,0.006207507856485796
8940.0,-0.01266693710933269
8944.0,-0.02033016521846177
8948.0,0.0033097466755873505
8952.0,-0.0018358699698951542
8956.0,-0.02715404457649461
8960.0,-0.0017762986544568446
8964.0,0.010403380824208028
8968.0,0.005609884181665007
8972.0,-0.009098028254352426
8976.0,-0.0029182892898023376
8980.0,0.014472950167315158
8984.0,-0.026725582705535066
8988.0,-0.08212295296128136
8992.0,-0.09979184842980524
8996.0,-0.13488098186307215
9000.0,0.002583135075395044
9004.0,0.17930214036591835
9008.0,0.35622245000426095
9012.0,0.5470685366937232
9016.0,0.7124295152706507
9020.0,0.900317084891939
9024.0,0.7187152173992263
9028.0,0.5321788731190387
9032.0,0.3679296980418122
9036.0,0.19855508604304745
9040.0,0.0007813787339784059
9044.0,-0.06746910236019543
9048.0,-0.1456234593212184
9052.0,-0.20463381184124
9056.0,-0.2782891290196448
9060.0,-0.19477707348453457
9064.0,-0.11791321710744673
9068.0,-0.07178741387262927
9072.0,-0.00838638509821472
9076.0,0.01639385396981508
9080.0,-0.005612259029892365
9084.0,0.0017819913359883187
9088.0,-0.011488246592806388
9092.0,0.009612055704315212
9096.0,-0.013927536839293618
9100.0,0.016385766140710217
9104.0,-0.0029862515923676346
9108.0,0.004058820107687739
9112.0,-0.00017933900717128395
9116.0,0.007002583052589571
9120.0,0.004897053598554432
9124.0,-0.020829717416274103
9128.0,-0.0017342996013486294
9132.0,0.007524717555966507
9136.0,0.022592640315141698
9140.0,-0.0041273745735087896
9144.0,-0.007966226514846539
9148.0,0.008286787745985583
9152.0,-0.011059605813621113
9156.0,0.00032379049742939115
9160.0,-0.017993511597285045
9164.0,-0.001463538289823701
9168.0,-0.006516042295049163
9172.0,0.0075632686394587045
9176.0,-0.0007839077515898196
9180.0,0.009745558404441855
9184.0,0.04108896022350089
9188.0,0.04899696920699166
9192.0,0.07396131555939822
9196.0,0.10246347913315138
9200.0,0.1296940560273274
9204.0,0.1743224979310352
9208.0,0.1701907948437241
9212.0,0.1909089918485384
9216.0,0.22041743913996717
9220.0,0.22589098986138645
9224.0,0.2503486721578263
9228.0,0.2750052990358926
9232.0,0.2633047785548447
9236.0,0.2685031362815652
9240.0,-0.007128498454511567
9244.0,-0.004877740001607231
9248.0,-0.006248158519874787
9252.0,-0.008671563825614119
9256.0,0.0008871151230715637
9260.0,0.011200621643937671
9264.0,0.001011982441851862
9268.0,-0.0033644398498288504
9272.0,0.01089254031585301
9276.0,-0.005578391289929491
9280.0,-0.013263566019997761
9284.0,0.05054457192973991
9288.0,0.06386743858443047
9292.0,0.09715120148250692
9296.0,0.10013721737173205
9300.0,0.1510132033924405
9304.0,0.1475405933528658
9308.0,0.16958250177026854
9312.0,0.1820148730635709
9316.0,0.19132619312452034
9320.0,0.18704803841899054
9324.0,0.1700850153749052
9328.0,0.19727641496870926
9332.0,0.15166479860957102
9336.0,0.1616933276001974
9340.0,0.1273128231336773
9344.0,0.11288133535738176
9348.0,0.0766328139406116
9352.0,0.05763615450011497
9356.0,0.02154613644082451
9360.0,0.010568864305928053
9364.0,0.008038341167391995
9368.0,-0.0025769004835657344
9372.0,0.007184930018862081
9376.0,-0.0018765609138817244
9380.0,-0.0041291168642528485
9384.0,-0.010212909507277108
9388.0,-0.012787358489199454
9392.0,0.002363464564082632
9396.0,0.018001155977595693
9400.0,-0.00011614515228483102
9404.0,0.0005634985636146008
9408.0,-0.00370401749210249
9412.0,-0.005470251105945996
9416.0,-0.015164676549242712
9420.0,0.0020434864145594685
9424.0,0.007627272095017654
9428.0,-0.00014481587794461356
9432.0,0.01862182490262729
9436.0,-0.0023885353567654906
9440.0,0.009542901606711984
9444.0,-0.02557136353749579
9448.0,-0.07004514839056734
9452.0,-0.10026221569241374
9456.0,-0.13517260284579627
9460.0,0.020433791634308664
9464.0,0.17307217603020367
9468.0,0.3515178988852392
9472.0,0.5319828533594901
9476.0,0.729893488557069
9480.0,0.8996893304240181
9484.0,0.7178400023537826
9488.0,0.5450733683126314
9492.0,0.3567423077800881
9496.0,0.17829970109868631
9500.0,0.01743974024660207
9504.0,-0.061462848527076785
9508.0,-0.1392703108977203
9512.0,-0.20458365749721052
9516.0,-0.2644804941423038
9520.0,-0.21306956120231196
9524.0,-0.13775801354454228
9528.0,-0.06144664761779803
9532.0,-0.005674063628986243
9536.0,-0.007839895531923468
9540.0,0.017932351203857978
9544.0,0.017031315811196445
9548.0,-0.015171569241742872
9552.0,0.005616268051542461
9556.0,-0.007865937834862426
9560.0,0.011117585088834838
9564.0,-0.011632522428234008
9568.0,-0.009107445924039559
9572.0,-0.005626087673890793
9576.0,-0.017553423960055787
9580.0,-0.008874904444374635
9584.0,-0.0018629178959550072
9588.0,0.00017936463023084323
9592.0,0.021734714225577184
9596.0,0.0024900410016754104
9600.0,0.0020388534684703833
9604.0,-0.002716482884413384
9608.0,0.00021115382208739501
9612.0,0.007517124945794279
9616.0,-0.004968691890080222
9620.0,-0.007390873515222849
9624.0,-0.0038487139638824883
9628.0,0.009749425933594692
9632.0,-0.005436311254249509
9636.0,0.009481683339143608
9640.0,-0.018058552170537364
9644.0,0.03810926486474981
9648.0,0.05541865772651661
9652.0,0.07758373940262178
9656.0,0.09839281653818832
9660.0,0.14243723627661461
9664.0,0.15433097375364538
9668.0,0.18477055381493435
9672.0,0.18780852760776906
9676.0,0.21179265093102706
9680.0,0.2458050864480663
9684.0,0.24137761848809686
9688.0,0.26458552478679287
9692.0,0.2562501462962427
9696.0,0.26696919318372625
9700.0,0.01235413974379383
9704.0,-0.0011105669667731632
9708.0,-0.0008984303756435993
9712.0,0.0014163721387067058
9716.0,-0.013284739630654388
9720.0,-0.013037627426491788
9724.0,0.010417816101609008
9728.0,0.00016663796343246634
9732.0,0.00011240382343744013
9736.0,0.01016270750053134
9740.0,-0.0025939305525835682
9744.0,0.04028936978006154
9748.0,0.05065225689729393
9752.0,0.08523367992799963
9756.0,0.09882432359948401
9760.0,0.1269352607907487
9764.0,0.14355803766741132
9768.0,0.14523909857937728
9772.0,0.1623586041624978
9776.0,0.1723535488388882
9780.0,0.17017377463461303
9784.0,0.1815993784324354
9788.0,0.19516845997360274
9792.0,0.1798410408226376
9796.0,0.15026589046067726
9800.0,0.11073577950936811
9804.0,0.10752133591273506
9808.0,0.08811183086892929
9812.0,0.0442322492762018
9816.0,0.03040439648339745
9820.0,0.012371351360320628
9824.0,-0.008151509093256223
9828.0,-0.0019438750906379608
9832.0,-0.010837856825309109
9836.0,-0.017229901136644736
9840.0,-0.004080708657471712
9844.0,-0.004370045303310778
9848.0,0.0025240432967430343
9852.0,-0.011746596118145696
9856.0,0.007974029142070141
9860.0,-0.013104214693195866
9864.0,0.009035554435227014
9868.0,0.007642246161641406
9872.0,0.028017770177815413
9876.0,-0.004290134647700009
9880.0,0.007840579370795683
9884.0,-0.010356768830265008
9888.0,-0.005859955700547111
9892.0,-0.0002814789417378356
9896.0,-0.0019497191672357373
9900.0,0.0022787681419001995
9904.0,-0.04111850186378017
9908.0,-0.0654096648501075
9912.0,-0.103883002977807
9916.0,-0.14009871615738945
9920.0,-0.012781888787555365
9924.0,0.18351669120864045
9928.0,0.3476326604971524
9932.0,0.5657235858150739
9936.0,0.7272332705906154
9940.0,0.9092129754071852
9944.0,0.7149737995411326
9948.0,0.5470453059564512
9952.0,0.36479171723663006
9956.0,0.20279313046443798
9960.0,-0.019232487075203482
9964.0,-0.07695819172261034
9968.0,-0.15094383561513264
9972.0,-0.20566786545355525
9976.0,-0.28289075616320286
9980.0,-0.20848052226213604
9984.0,-0.12351026172536776
9988.0,-0.0515899695302803
9992.0,0.012214220803848048
9996.0,-0.006382759514856521
10000.0,-0.005914900713788616
10004.0,0.0033698333440004094
10008.0,-0.00010732083280364273
10012.0,-0.0038209983664930017
10016.0,9.552424839854402e-05
10020.0,-0.015484050858863617
10024.0,0.025034370771652183
10028.0,0.0072509601792964794
10032.0,-0.009950989157842956
10036.0,-0.011088847332286798
10040.0,0.00698326426117299
10044.0,0.0016355540044348548
10048.0,-0.004393748886014516
10052.0,0.008357324229282502
10056.0,0.009103906597167286
10060.0,-0.01743159367589927
10064.0,0.020462330568098014
10068.0,-0.0007566607731950386
10072.0,0.015841386775405163
10076.0,-0.016785449873182336
10080.0,-0.0027814792249690246
10084.0,-0.012531803892091855
10088.0,0.006742632999195946
10092.0,0.010120898553790334
10096.0,0.006816280854794073
10100.0,-0.007017527161961914
10104.0,0.02390897561248074
10108.0,0.06166163614978856
10112.0,0.06279453037910387
10116.0,0.10093119948751375
10120.0,0.11867106948372236
10124.0,0.15493928628648201
10128.0,0.17625302059623885
10132.0,0.18881388555874523
10136.0,0.2147636093847863
10140.0,0.2219313664916519
10144.0,0.2578786984059883
10148.0,0.2674910578045183
10152.0,0.2634134186851024
10156.0,0.2636598342143536
10160.0,0.020845727219274218
10164.0,-0.0037517774787224653
10168.0,0.011575943249511613
10172.0,-0.002291440700583146
10176.0,-0.012904782276594504
10180.0,0.009182437105237055
10184.0,0.017769840584872507
10188.0,-0.012373745700718536
10192.0,-0.006867869810061767
10196.0,-0.02040961202420948
10200.0,0.009952870716117432
10204.0,0.03463262155499719
10208.0,0.0396014525644038
10212.0,0.09307751193095033
10216.0,0.10653638635716862
10220.0,0.13483923215422267
10224.0,0.1243437977456048
10228.0,0.16550102646060882
10232.0,0.16099682754244415
10236.0,0.16413464947168446
10240.0,0.17504189195952166
10244.0,0.18599055528190966
10248.0,0.16293037290164283
10252.0,0.15904758869158986
10256.0,0.14108141718497322
10260.0,0.12963185417803688
10264.0,0.11533958327532388
10268.0,0.06329096170167925
10272.0,0.05148032418062778
10276.0,0.03497996932266435
10280.0,0.020015493865724404
10284.0,-0.007886884090654458
10288.0,0.006409871231357539
10292.0,0.01185037950184186
10296.0,-0.008470530567575706
10300.0,0.003060267399622719
10304.0,-0.0014798467166724158
10308.0,0.028823714018885394
10312.0,-0.01606128013735323
10316.0,0.00972462721027567
10320.0,-0.018909603345004477
10324.0,0.0014638438417439634
10328.0,-0.0017031312454495028
10332.0,-0.0030007633937977583
10336.0,-0.003456795497362305
10340.0,-0.001107233051123353
10344.0,-0.006129732200424283
10348.0,-0.006344660561663862
10352.0,0.005659805966307633
10356.0,0.0053536589824691285
10360.0,0.009764082497154611
10364.0,-0.007443737045807548
10368.0,-0.08700651323955835
10372.0,-0.08668224119382746
10376.0,-0.13480336369008186
10380.0,0.018816733897543778
10384.0,0.18407491403727608
10388.0,0.3611847860837972
10392.0,0.5484756510033042
10396.0,0.7204495669403902
10400.0,0.8897150002652111
10404.0,0.71756863117245
10408.0,0.5462407947983677
10412.0,0.3586822383004744
10416.0,0.1872508211802156
10420.0,0.0011346949821999044
10424.0,-0.07926365529742152
10428.0,-0.15265638930552472
10432.0,-0.21380246939396846
10436.0,-0.27334539566673455
10440.0,-0.20269915983028783
10444.0,-0.13961811566619997
10448.0,-0.0727047898644054
10452.0,0.00859599483508408
10456.0,0.015021916448804863
10460.0,-0.008486312302709976
10464.0,0.003587381962809319
10468.0,-0.018872658423933084
10472.0,-0.012235827872368647
10476.0,-0.006594760843949351
10480.0,0.001075953715270861
10484.0,-0.012454411532509358
10488.0,-0.021899271909721976
10492.0,0.003413239948946698
10496.0,-0.006426170701690964
10500.0,-0.0031151180068154263
10504.0,0.002502840019686369
10508.0,-0.016389410265211898
10512.0,-0.014365016069035714
10516.0,-0.006845217548192411
10520.0,0.016241429213015846
10524.0,0.006652656720536112
10528.0,-0.0029438731702454285
10532.0,0.0019459639272200546
10536.0,0.017231696591238087
10540.0,-0.013041217659700238
10544.0,0.0062122293291672764
10548.0,-0.0003147768257783449
10552.0,0.010345225630626015
10556.0,-0.00981154701042892
10560.0,-0.014575834576181071
10564.0,0.02778765901469939
10568.0,0.07875069080897165
10572.0,0.08734199852635692
10576.0,0.08531749973977679
10580.0,0.13169937740324242
10584.0,0.16606798609191026
10588.0,0.18820397139092665
10592.0,0.19581409448374915
10596.0,0.21982920756673613
10600.0,0.23248472924844507
10604.0,0.22529713673569393
10608.0,0.2512222502616148
10612.0,0.25116218638788756
10616.0,0.27035599252569653
10620.0,0.0077177671361187685
10624.0,-0.006815248743985842
10628.0,-0.01583463373227352
10632.0,-0.0028263334433711314
10636.0,0.0040045943353387995
10640.0,0.010564309084505664
10644.0,-0.001141990095619166
10648.0,0.00020174498432076992
10652.0,-0.0005567243085402037
10656.0,0.015494137736011316
10660.0,-0.004476924906568751
10664.0,0.0287636424586621
10668.0,0.06096845352932857
10672.0,0.07572247679147598
10676.0,0.1147700488289107
10680.0,0.1357327259946024
10684.0,0.15975510556668263
10688.0,0.15491540722117195
10692.0,0.1692418688696697
10696.0,0.16994966292081368
10700.0,0.18636614058547846
10704.0,0.1711321237158556
10708.0,0.1835358332410711
10712.0,0.17470604698041092
10716.0,0.14236427419702852
10720.0,0.12089422093712231
10724.0,0.11617062090591193
10728.0,0.07662133112192489
10732.0,0.053468418120233445
10736.0,0.013719247290368093
10740.0,-0.017593252585099032
10744.0,0.0027466387884186754
10748.0,-0.007991512121552104
10752.0,0.004070120489213768
10756.0,0.00230025411393675
10760.0,-0.008427547422771435
10764.0,0.0029640613323507325
10768.0,0.0024724759349837155
10772.0,0.007996014628357286
10776.0,-0.01600874700748418
10780.0,0.02691117096441634
10784.0,-0.00024409436710540175
10788.0,-0.01720870386309208
10792.0,0.006551093196831524
10796.0,-0.009750647467535742
10800.0,0.006225823662837585
10804.0,-0.00861830058547935
10808.0,-0.004658710827868206
10812.0,0.0050898354533691235
10816.0,-0.0026609291642012943
10820.0,-0.005945575335446504
10824.0,-0.03370852184352493
10828.0,-0.07142279915692246
10832.0,-0.11540050131287433
10836.0,-0.1325851700085019
10840.0,-0.011529684886367655
10844.0,0.1943868235567425
10848.0,0.3494553131396154
10852.0,0.5234256901853573
10856.0,0.7279510989997413
10860.0,0.8953275038630538
10864.0,0.7041290759210056
10868.0,0.5573578077252986
10872.0,0.3693109649252859
10876.0,0.16478771427311548
10880.0,-0.00030174286717031735
10884.0,-0.07934032549862167
10888.0,-0.11077135757552052
10892.0,-0.2131573890943792
10896.0,-0.2769596178818976
10900.0,-0.20835575349764238
10904.0,-0.11234588998084451
10908.0,-0.07409502903035406
10912.0,0.0025944252902126187
10916.0,0.00883290432752137
10920.0,0.0009776780653907077
10924.0,-0.01306338164432032
10928.0,0.001636200738813155
10932.0,-0.01343581117669949
10936.0,-0.0064840852405408066
10940.0,-0.010050506503177181
10944.0,0.002257287923031355
10948.0,-0.009701085072726066
10952.0,-0.003142986949903012
10956.0,0.005058284652780178
10960.0,-0.007661453817253672
10964.0,0.0038870934801035983
10968.0,-0.03383444830922064
10972.0,0.0013446199848167284
10976.0,0.012133911950474276
10980.0,-0.0024123108156424646
10984.0,0.004787326101462135
10988.0,0.0007292772637872696
10992.0,-0.010016004046206697
10996.0,0.012417990868804213
11000.0,-0.002872770336245637
11004.0,0.005557758549195415
11008.0,-0.01894766801389067
11012.0,-0.001952411051921938
11016.0,-0.01432647755502259
11020.0,-0.013482698969276792
11024.0,0.03277425560550224
11028.0,0.06941637089042335
11032.0,0.08411447159547442
11036.0,0.11199690837373881
11040.0,0.1416605498907345
11044.0,0.1697842078402058
11048.0,0.1976198549535252
11052.0,0.21839595937778492
11056.0,0.2228279661451777
11060.0,0.22157203448418167
11064.0,0.24364699046850452
11068.0,0.23674143654568766
11072.0,0.266538863568968
11076.0,0.28219056350590976
11080.0,0.0017033267343260466
11084.0,0.002110183248768611
11088.0,-0.002016672581508236
11092.0,0.010106673909154016
11096.0,0.009961247214462206
11100.0,-0.004315414273340404
11104.0,0.00809248594114139
11108.0,-0.0011030878283285752
11112.0,-0.013146934653627037
11116.0,-0.013630450285314111
11120.0,0.002215133730208021
11124.0,0.01916587840160039
11128.0,0.0521000482098664
11132.0,0.07195281161694855
11136.0,0.10684363686677185
11140.0,0.12232471867897297
11144.0,0.15564351232901072
11148.0,0.1585069767780493
11152.0,0.17902594991074566
11156.0,0.1780707890931281
11160.0,0.19911066251609488
11164.0,0.18674421023637014
11168.0,0.1635086221775077
11172.0,0.1601284841336361
11176.0,0.13413000058460267
11180.0,0.11695578295718138
11184.0,0.0923299830771975
11188.0,0.0820653974070687
11192.0,0.04313509871816076
11196.0,0.04669953912366754
11200.0,0.002765985075395564
11204.0,-0.000954453627589036
11208.0,0.0004079308646865951
11212.0,0.006160376562038409
11216.0,0.009042452110986879
11220.0,0.01050121793850129
11224.0,-0.007174016555767812
11228.0,0.002838269555749263
11232.0,0.0012221517635525815
11236.0,0.007512565114225005
11240.0,-0.003415393172483798
11244.0,0.0021501078412587277
11248.0,-0.013705728592620774
11252.0,0.004521645220196526
11256.0,0.0012170735872531922
11260.0,-0.00703695279567586
11264.0,-0.001709265114357983
11268.0,0.0014027624610500142
11272.0,-0.016809067339096834
11276.0,0.003086731328412521
11280.0,-0.005250443016199673
11284.0,-0.047327735617029444
11288.0,-0.0778089713423855
11292.0,-0.10510816398061888
11296.0,-0.1374450669081534
11300.0,0.010754368547447461
11304.0,0.18103960770137045
11308.0,0.35154263670843944
11312.0,0.5143065506498476
11316.0,0.724753427756391
11320.0,0.9059057064713599
11324.0,0.7063411984317725
11328.0,0.5433712598036952
11332.0,0.3444289227269626
11336.0,0.19087870765069032
11340.0,0.0073494777738074115
11344.0,-0.06430827626002238
11348.0,-0.13464745763761546
11352.0,-0.18807535583036658
11356.0,-0.2783166036562326
11360.0,-0.2089802554994739
11364.0,-0.1541958825290169
11368.0,-0.071749104370465
11372.0,-0.01245485130678932
11376.0,-0.010761734894228905
11380.0,-0.01646627973577196
11384.0,-0.005815104896876067
11388.0,-0.009016270823277009
11392.0,0.004205712369374081
11396.0,0.006692060008872906
11400.0,-0.006678658739287148
11404.0,-0.010949723507591878
11408.0,0.014393106273844505
11412.0,0.0005235735697853746
11416.0,0.01405107918188843
11420.0,-0.0036250039586784573
11424.0,-0.012529021211172916
11428.0,0.007727573674939761
11432.0,0.0006874469614074583
11436.0,0.004687408609335403
11440.0,-0.0021702386617485727
11444.0,-0.01713327707762286
11448.0,-0.0008178628653245847
11452.0,0.006308336607345636
11456.0,-0.009923518036792764
11460.0,-0.003037016030886452
11464.0,-0.00463942865832174
11468.0,-0.007128234136600861
11472.0,-0.000474736751816449
11476.0,0.0021434885688666524
11480.0,0.004042807518839965
11484.0,0.0275303317371204
11488.0,0.05525133476939965
11492.0,0.08830349889134048
11496.0,0.09928868424303529
11500.0,0.13105733264088026
11504.0,0.15639989103469693
11508.0,0.1812867599685941
11512.0,0.2043492111054986
11516.0,0.2134651775712338
11520.0,0.2141462316909982
11524.0,0.24760697905620163
11528.0,0.26503064634420354
11532.0,0.26649987746325476
11536.0,0.2747307953037128
11540.0,-0.004224619209182887
11544.0,0.002143396167571746
11548.0,-0.01998022898326622
11552.0,0.0030895488943775275
11556.0,0.006757291200656951
11560.0,-0.006076409623425911
11564.0,0.01308497576080631
11568.0,0.016755181270222214
11572.0,-0.0014034516224089566
11576.0,-0.016141178039290088
11580.0,-0.010656200373965365
11584.0,0.030660555245008176
11588.0,0.04976171361873152
11592.0,0.08601738957883291
11596.0,0.10057624380193086
11600.0,0.11053122269213421
11604.0,0.1380676889841186
11608.0,0.15662838405090546
11612.0,0.1822696403954245
11616.0,0.18929151222653226
11620.0,0.18574130567973315
11624.0,0.16078485763149997
11628.0,0.1822788020643164
11632.0,0.1574285749812033
11636.0,0.16333522329258895
11640.0,0.12414335375767557
11644.0,0.11262517864689481
11648.0,0.07545100016276994
11652.0,0.07436052778209763
11656.0,0.02928428789557406
11660.0,0.010472531036820476
11664.0,0.0021498530188332303
11668.0,-0.0027886967322247884
11672.0,-0.009225098338634743
11676.0,-0.00914001212114708
11680.0,-0.015143329997456852
11684.0,-0.011774194608507729
11688.0,0.006867351563904571
11692.0,0.006646738672273913
11696.0,0.0026364800265405025
11700.0,-0.023189415741653816
11704.0,-0.009551685260033837
11708.0,-0.0005311002146597434
11712.0,-0.00010852751007118432
11716.0,0.003754184154843302
11720.0,0.0029431423471814994
11724.0,-0.014636061605412795
11728.0,0.013455241141165586
11732.0,-0.0015758877025033994
11736.0,-0.010258648119865585
11740.0,0.0062235979049347825
11744.0,-0.02218438740928359
11748.0,-0.06960253269683193
11752.0,-0.1072450827057982
11756.0,-0.13603789958681667
11760.0,-0.01393961225820716
11764.0,0.19720943253749332
11768.0,0.3575548715617374
11772.0,0.5368237346877861
11776.0,0.745411566172492
11780.0,0.8901860965526378
11784.0,0.7034873181073996
11788.0,0.5575539607335906
11792.0,0.36778517767414015
11796.0,0.17339555903047482
11800.0,0.0058939731457189285
11804.0,-0.08320191703946901
11808.0,-0.11920853208446303
11812.0,-0.19226263547319752
11816.0,-0.2784968672586713
11820.0,-0.1976741615826628
11824.0,-0.11110485502698071
11828.0,-0.0688039835262709
11832.0,-0.016159512575426645
11836.0,-0.013218723812072414
11840.0,0.0016432089969650055
11844.0,-0.004470575891857185
11848.0,-0.017055362218777043
11852.0,0.0035166072394336536
11856.0,0.0024442066449985086
11860.0,-0.008246962171208445
11864.0,-0.007763606829931441
11868.0,-0.02350158496554388
11872.0,0.008541440669627361
11876.0,-0.0003069152798619668
11880.0,-0.0018412035441312364
11884.0,0.007604742944803706
11888.0,-0.010915195507777219
11892.0,-0.009308660056663974
11896.0,0.0071248628240629846
11900.0,-0.01513178979096219
11904.0,0.007390719839253656
11908.0,-0.014069290471587417
11912.0,-0.003907335038192184
11916.0,-0.009521458351175632
11920.0,-0.01120600736738193
11924.0,0.01867381910825019
11928.0,0.01749890484200018
11932.0,0.00016081838235038168
11936.0,0.0010866416953097164
11940.0,-0.008657118967975212
11944.0,0.02141723421035342
11948.0,0.06314692627035548
11952.0,0.0783211167374603
11956.0,0.11728143228288383
11960.0,0.13202941320463543
11964.0,0.16989635646879236
11968.0,0.17804070577717246
11972.0,0.215474770957372
11976.0,0.20708743181352038
11980.0,0.23264967922746954
11984.0,0.24654988514634832
11988.0,0.24910861030286605
11992.0,0.27497552425620037
11996.0,0.26682115333446976
12000.0,0.005691749364494842
12004.0,-0.00273792506976987
12008.0,-0.004979883717663481
12012.0,0.006164988114017175
12016.0,-0.00845997755651989
12020.0,-0.0016480587056724866
12024.0,-0.0015439133454062382
12028.0,-0.015249728514699365
12032.0,0.004089892592069933
12036.0,0.022571175345938454
12040.0,-0.008255640835569393
12044.0,0.015218032017524396
12048.0,0.044397788537088166
12052.0,0.08819533864112371
12056.0,0.09950963590783465
12060.0,0.13376243295161536
12064.0,0.15958698028387897
12068.0,0.16623934779924676
12072.0,0.18242981540956282
12076.0,0.18446941386069718
12080.0,0.17909455387359516
12084.0,0.1856276551649119
12088.0,0.1582812645262662
12092.0,0.16114029566398208
12096.0,0.1422836153115605
12100.0,0.12157433436336476
12104.0,0.10934357418205873
12108.0,0.07817249414379535
12112.0,0.03970021827132768
12116.0,0.032628522124491695
12120.0,-0.0043964731779161425
12124.0,0.020807216454474944
12128.0,0.003551154872072274
12132.0,-0.007431407022391711
12136.0,-0.004991274855102309
12140.0,-0.020079294124178988
12144.0,-0.006064269739841021
12148.0,-0.011618202820848368
12152.0,0.0012888446546786678
12156.0,0.0013402986353879599
12160.0,0.0015897789264561124
12164.0,-0.0033582932189391767
12168.0,0.0019635080561472198
12172.0,-0.006020339618101237
12176.0,-0.004419914132906881
12180.0,0.007090742323917047
12184.0,-0.001027641272140411
12188.0,-0.009132028203171334
12192.0,-0.0027804177053128
12196.0,-0.004173596788491275
12200.0,0.001243478731668675
12204.0,-0.021728878108582116
12208.0,-0.0716437195682736
12212.0,-0.09478614233381315
12216.0,-0.15177066903978348
12220.0,-0.006545917824229827
12224.0,0.1768955260158353
12228.0,0.35752343896165656
12232.0,0.553983851174763
12236.0,0.7410427443736751
12240.0,0.899856885536831
12244.0,0.7209187757250152
12248.0,0.521131551999955
12252.0,0.3484081433525292
12256.0,0.18833171201973706
12260.0,0.022047085586085466
12264.0,-0.07130427082352056
12268.0,-0.1404860929063957
12272.0,-0.19803078393369045
12276.0,-0.25696410644944584
12280.0,-0.20773076905496807
12284.0,-0.15185499781560508
12288.0,-0.07338454989433246
12292.0,0.0008883164358673325
12296.0,-0.0038217777049471893
12300.0,0.0048535468853253255
12304.0,0.0029137052340788643
12308.0,0.02277718004418881
12312.0,0.00754255768137062
12316.0,0.004996924192787687
12320.0,0.0038248553714969936
12324.0,-0.0016321976506424572
12328.0,-0.001760172446569567
12332.0,0.0018081623678402568
12336.0,-0.013654663751204976
12340.0,-0.004697639813081155
12344.0,0.02134424455015292
12348.0,0.00937962797869548
12352.0,-0.00926720678384916
12356.0,0.0026427211585992923
12360.0,-0.009282643244460282
12364.0,-0.018576191536569746
12368.0,-0.0041622090446851575
12372.0,-0.0012931855717809562
12376.0,0.013825594696631048
12380.0,-0.005089521342416783
12384.0,0.0004433011030416706
12388.0,0.009242670908430888
12392.0,0.010221253920848451
12396.0,-0.009045711070735027
12400.0,-0.0034332553889587086
12404.0,0.031043113241629255
12408.0,0.06646039001811527
12412.0,0.09534326171080255
12416.0,0.09939056291040418
12420.0,0.13770713464735249
12424.0,0.14994370079600544
12428.0,0.1894618024261056
12432.0,0.1897430523807343
12436.0,0.20555731652307796
12440.0,0.24258206072356006
12444.0,0.2511390903547035
12448.0,0.2621372175638381
12452.0,0.26506960726812834
12456.0,0.26842733785500617
12460.0,0.011471024048366238
12464.0,-0.00379580799019752
12468.0,0.01337693248640097
12472.0,0.010768597934938907
12476.0,0.0027223068636593973
12480.0,0.013234267142596741
12484.0,0.012421035661226881
12488.0,-0.0007144901029093448
12492.0,-0.007077459779924279
12496.0,-0.0026165222249588034
12500.0,0.011585803412343361
12504.0,0.03388077708833091
12508.0,0.06143620999918488
12512.0,0.08224694866561393
12516.0,0.0996049430478462
12520.0,0.1336145531580407
12524.0,0.13384814540790518
12528.0,0.14770780871829026
12532.0,0.1770113436944818
12536.0,0.18510225691778448
12540.0,0.18523341248544478
12544.0,0.1827257123377572
12548.0,0.17918443787302402
12552.0,0.17503411415731834
12556.0,0.1552376893338698
12560.0,0.10715466509937702
12564.0,0.10371461082845156
12568.0,0.08394470355019217
12572.0,0.0623881579606054
12576.0,0.025634974880277956
12580.0,-0.004687497337107214
12584.0,-0.007236034585397622
12588.0,-0.008606763403548308
12592.0,0.014229553781708705
12596.0,-0.006047407608363597
12600.0,-0.0017855319028832173
12604.0,-0.0012131496453868678
12608.0,0.006351965584322374
12612.0,-0.0007276661909626003
12616.0,0.008824232868726786
12620.0,0.01835523141145092
12624.0,0.0030677973027187005
12628.0,-0.01105963063201155
12632.0,0.001616457728519802
12636.0,0.008481232674052009
12640.0,-0.010743383949955316
12644.0,0.010214095680116605
12648.0,-0.0029508593279666236
12652.0,0.012109121649780848
12656.0,0.009496107321647488
12660.0,-0.0036401568116475502
12664.0,-0.025220046693998986
12668.0,-0.06256242875295193
12672.0,-0.09909364671395804
12676.0,-0.14259151028694042
12680.0,0.0034584363592181167
12684.0,0.19110382571860685
12688.0,0.35410000425469007
12692.0,0.5524657650983207
12696.0,0.7225163279374585
12700.0,0.8824735073069817
12704.0,0.7213141752745761
12708.0,0.5468110642669545
12712.0,0.36429641398199397
12716.0,0.17698977870818786
12720.0,-0.006088646479793053
12724.0,-0.07134381431041795
12728.0,-0.1494915579842735
12732.0,-0.2092742857922653
12736.0,-0.27503783596343573
12740.0,-0.2014514293083554
12744.0,-0.14541093457017318
12748.0,-0.07365910435287536
12752.0,-0.00472545846550596
12756.0,-0.032015108901946886
12760.0,-0.01324321327040901
12764.0,5.691166266030397e-05
12768.0,-0.0009302994577136343
12772.0,-0.00619063202097288
12776.0,0.014565643571305662
12780.0,-0.0036647631674313957
12784.0,-0.01127356737123554
12788.0,0.0005009836109963437
12792.0,0.011622402591283281
12796.0,0.009278943666340717
12800.0,0.0037230259027071183
12804.0,0.002748378864695926
12808.0,0.00015565126120833144
12812.0,-0.007327181113399338
12816.0,0.0008050939281190923
12820.0,0.00021422375782472814
12824.0,0.0023508606907513985
12828.0,0.00043511774942443863
12832.0,-0.013103717877756414
12836.0,-0.015570410883606625
12840.0,0.0011942725426708955
12844.0,0.009345609109652186
12848.0,0.011063668708229784
12852.0,-0.004154906272671087
12856.0,-0.011534696491477921
12860.0,0.012791419074073766
12864.0,0.01739268422005022
12868.0,0.06183546626851611
12872.0,0.10761383432270266
12876.0,0.11990888022794102
12880.0,0.12929390769566912
12884.0,0.16376762157667404
12888.0,0.17982745585531476
12892.0,0.20224265917603867
12896.0,0.21713133736306903
12900.0,0.24671300340593394
12904.0,0.24358368237112227
12908.0,0.2490648451937445
12912.0,0.2655853147227976
12916.0,0.2524723158147846
12920.0,0.012525940870977912
12924.0,0.004448159572994824
12928.0,0.004046185632855064
12932.0,0.005435037246204303
12936.0,-0.005126448490017912
12940.0,-0.0036438883577959553
12944.0,-0.002231878191574707
12948.0,0.0033878667709157533
12952.0,0.011972657224979423
12956.0,-0.009196376133539068
12960.0,-0.008012609829505841
12964.0,0.028505955023992634
12968.0,0.04479148841502426
12972.0,0.07728901962346192
12976.0,0.10624586959010902
12980.0,0.12223768236794848
12984.0,0.14658997015499553
12988.0,0.16995283713843928
12992.0,0.15186775683689582
12996.0,0.19395261730526955
13000.0,0.18393271893308002
13004.0,0.186698889165869
13008.0,0.18734365118509289
13012.0,0.15730719207031368
13016.0,0.14727537445698796
13020.0,0.12918660337892166
13024.0,0.10431066374322794
13028.0,0.07988181560617376
13032.0,0.07332889492551535
13036.0,0.04508247333030456
13040.0,0.004538622949093488
13044.0,-0.007378696597452526
13048.0,0.012984842549476787
13052.0,-0.00273080211176758
13056.0,0.008281052115396863
13060.0,-0.014439931466316372
13064.0,-0.007919971802550852
13068.0,0.011397665821889683
13072.0,-0.003439991462322347
13076.0,-0.01025084385332268
13080.0,-0.01594001173526636
13084.0,0.004177315598989346
13088.0,-0.014805064417874476
13092.0,0.003953102032218659
13096.0,0.006993309516711941
13100.0,0.014632332954642793
13104.0,-0.016975469816390965
13108.0,-0.008060918235312407
13112.0,0.009047369852417622
13116.0,-0.002442461151769739
13120.0,0.008946328886774392
13124.0,-0.033750137767152244
13128.0,-0.07349417686588598
13132.0,-0.09469712173830562
13136.0,-0.13977616757239608
13140.0,-0.015661039453035944
13144.0,0.17707858055293396
13148.0,0.36209297026074533
13152.0,0.5567250992760875
13156.0,0.7114961118754586
13160.0,0.8986112455827231
13164.0,0.7316792755490942
13168.0,0.5536066529255725
13172.0,0.36669741566408476
13176.0,0.18595736423911066
13180.0,-0.0006689214264803276
13184.0,-0.06747993140309809
13188.0,-0.12441945394885125
13192.0,-0.20280640480692805
13196.0,-0.25606060412751813
13200.0,-0.20665772357370327
13204.0,-0.1399720813997371
13208.0,-0.05113694134064582
13212.0,0.0067426401138842885
13216.0,0.001961151226099385
13220.0,0.011195881636258636
13224.0,-0.006027119799658546
13228.0,-0.0025002007498707945
13232.0,-0.012702012991309929
13236.0,-0.0058002885134377105
13240.0,-0.0054145936210933535
13244.0,0.010467605869508085
13248.0,0.013534149678481164
13252.0,-0.003604485250608266
13256.0,-0.001976028746136493
13260.0,0.009071629734921738
13264.0,0.016094469184376146
13268.0,-0.013144015773687276
13272.0,-0.019198351310770904
13276.0,-0.03342148571752914
13280.0,0.0002557056842446032
13284.0,-0.00827490755755413
13288.0,0.00035905855503712324
13292.0,-0.00551592280712548
13296.0,0.0031317817535902953
13300.0,0.00046982768320940526
13304.0,0.01837324237246529
13308.0,-0.006017163236582745
13312.0,0.0005727994723127033
13316.0,-0.018544053200516743
13320.0,-0.007274650587584838
13324.0,0.04988608378238607
13328.0,0.07235360510801969
13332.0,0.0919520142834035
13336.0,0.11688550729264575
13340.0,0.12691180837576238
13344.0,0.16266197038451144
13348.0,0.18089476185384978
13352.0,0.1862712136422962
13356.0,0.2175403778940598
13360.0,0.25620390719982467
13364.0,0.2526772062349112
13368.0,0.2558726459524039
13372.0,0.28177930455091144
13376.0,0.26850702032367435
13380.0,0.001682272629789203
13384.0,-0.0068651731492571245
13388.0,0.031225853809306512
13392.0,0.018119113814390488
13396.0,-0.004084723880736745
13400.0,-0.0023878941965527005
13404.0,-0.004618292826902852
13408.0,-0.018117896527205017
13412.0,-0.010250227802426473
13416.0,-0.020703198184603963
13420.0,0.0029904061531705697
13424.0,0.03402876952407731
13428.0,0.06116270763712102
13432.0,0.08441941308699623
13436.0,0.1069341028313275
13440.0,0.1269582671524666
13444.0,0.15296981137945087
13448.0,0.17217302321552075
13452.0,0.18803586393972166
13456.0,0.17931353736610808
13460.0,0.17115178363711958
13464.0,0.19758694410005545
13468.0,0.15249926996775803
13472.0,0.15931901990599925
13476.0,0.17197675172508717
13480.0,0.13460052544057774
13484.0,0.10068677590637996
13488.0,0.07779726024472573
13492.0,0.07553923600342011
13496.0,0.005313221255153929
13500.0,-0.016698200571349606
13504.0,-0.005518394225299244
13508.0,0.0008034801693299325
13512.0,0.027226906064226605
13516.0,-0.01896305135031027
13520.0,-0.008034385783289135
13524.0,0.018192924593291408
13528.0,0.0029716076603061125
13532.0,0.00868013140646559
13536.0,0.008464358987770435
13540.0,-0.007211657738006566
13544.0,-0.019356778543356667
13548.0,0.026247283573272988
13552.0,-0.007972479728154975
13556.0,-0.006167784167481843
13560.0,0.013937673983564618
13564.0,-0.009124173141106272
13568.0,-0.0016717185240025276
13572.0,0.005113208275900424
13576.0,-0.00766617502133937
13580.0,-0.005304817667005345
13584.0,-0.04494172409033458
13588.0,-0.07576527118689212
13592.0,-0.10339428762068223
13596.0,-0.13435284815140006
13600.0,0.019454870473710723
13604.0,0.18733873845217308
13608.0,0.35976820138008586
13612.0,0.550102667765723
13616.0,0.7220215958517207
13620.0,0.901052223711792
13624.0,0.7200961853337886
13628.0,0.534760742155789
13632.0,0.36843913035459847
13636.0,0.1996125473667387
13640.0,0.014447324044203486
13644.0,-0.06795371036520634
13648.0,-0.13072389895294542
13652.0,-0.2148712330888968
13656.0,-0.2674450386448707
13660.0,-0.1899301276651137
13664.0,-0.13257883767136658
13668.0,-0.05852198523773831
13672.0,-0.016978977630413287
13676.0,-0.00584718653013785
13680.0,0.0053243029097422645
13684.0,0.019680402565648923
13688.0,0.0003040687360416185
13692.0,0.00810501828966764
13696.0,-0.0005330287083215639
13700.0,0.009287160564689832
13704.0,-0.010551991592971013
13708.0,-6.279024828595182e-05
13712.0,0.0034690681441703597
13716.0,0.006932296234575003
13720.0,-0.006888819987448207
13724.0,0.0031915344008428925
13728.0,-0.01252311477308184
13732.0,0.006642767685983102
13736.0,0.0025052377304930536
13740.0,-0.015602298646204415
13744.0,-0.00727092225534558
13748.0,0.003552892239037866
13752.0,-0.010667286858252257
13756.0,0.0037802642292899796
13760.0,-0.005119111081941335
13764.0,0.00397070054948743
13768.0,0.005833336146223921
13772.0,-0.011300467713094705
13776.0,0.011756721292768599
13780.0,0.0010219921135235877
13784.0,0.032909172604007914
13788.0,0.04497145731133252
13792.0,0.07488226697521776
13796.0,0.11806408903538522
13800.0,0.12479872719750414
13804.0,0.1594804114562205
13808.0,0.15459280057647867
13812.0,0.201874300546363
13816.0,0.2213173555207229
13820.0,0.22920198030876965
13824.0,0.24583189771423575
13828.0,0.26717979723877316
13832.0,0.272506491232808
13836.0,0.27608515131647726
13840.0,-0.025512811004670094
13844.0,-0.019624420197409884
13848.0,-0.009944604352149387
13852.0,-0.010575792611122983
13856.0,-0.008728420153758866
13860.0,0.0030972764894985003
13864.0,0.00812901613063434
13868.0,0.009012232361734285
13872.0,0.004773234128527631
13876.0,0.012195694831002557
13880.0,0.014129852177808395
13884.0,0.018055774134297757
13888.0,0.053180889038480686
13892.0,0.08408671360129813
13896.0,0.11418816873622269
13900.0,0.1297371528560277
13904.0,0.15223985984591806
13908.0,0.16080159786480427
13912.0,0.16910042999048278
13916.0,0.17608792282831295
13920.0,0.1827104338271264
13924.0,0.17750072142597742
13928.0,0.15464916323972855
13932.0,0.15041476075522653
13936.0,0.14688255799278738
13940.0,0.12459736586411184
13944.0,0.1108807604772585
13948.0,0.06988476999679431
13952.0,0.05129082981943851
13956.0,0.04076194635962387
13960.0,0.013080582016681249
13964.0,0.016190327287407952
13968.0,0.01456861723936075
13972.0,0.007438399357752447
13976.0,-0.0017750066072963029
13980.0,0.011813021586647422
13984.0,0.025001944098104214
13988.0,0.008317029701773386
13992.0,-0.012612084253470013
13996.0,-0.004276140340823133
14000.0,-0.007297706327875519
14004.0,0.022422704141801725
14008.0,-0.00781502035341326
14012.0,0.018341462486161503
14016.0,-0.001998814749363477
14020.0,-0.002930273309936474
14024.0,0.0067290647333565125
14028.0,0.020858507087727914
14032.0,-0.00600886996475066
14036.0,0.0034477740169415513
14040.0,0.013973239678480482
14044.0,-0.0322119275428289
14048.0,-0.060813507592197835
14052.0,-0.10203754197691184
14056.0,-0.13322464229998124
14060.0,0.0032152528149950806
14064.0,0.17897515330347666
14068.0,0.34956391040929974
14072.0,0.5465357584821914
14076.0,0.7185686832987407
14080.0,0.9109167676479727
14084.0,0.7163222484731808
14088.0,0.5352601481886375
14092.0,0.3572873263034362
14096.0,0.19158960968893596
14100.0,-0.012284632372926499
14104.0,-0.07084765554850593
14108.0,-0.1456018867027886
14112.0,-0.2026652885586091
14116.0,-0.27224758843241054
14120.0,-0.21992530549550995
14124.0,-0.14857145115509152
14128.0,-0.07681934904546747
14132.0,-0.007259165935014297
14136.0,0.005604265371748255
14140.0,-0.006732675058821499
14144.0,-0.009902925528718978
14148.0,0.00576716123885526
14152.0,0.00846433225823806
14156.0,-0.002001890521574879
14160.0,0.006592350929237797
14164.0,-0.006647970839881646
14168.0,-0.009863018455250627
14172.0,-0.00038074253552937784
14176.0,-0.006491404930177642
14180.0,-0.004260551592141872
14184.0,0.011012567937600113
14188.0,0.012817706118331891
14192.0,-0.01700759248150841
14196.0,-0.0027539586744096123
14200.0,0.001502341201235925
14204.0,-0.001036400596846939
14208.0,-0.0003495837465355382
14212.0,-0.012470446159106674
14216.0,-0.006315675867527256
14220.0,0.001111547171436093
14224.0,-0.001520207733030013
14228.0,0.005734597043628791
14232.0,-0.005831907444257794
14236.0,0.0005996183994777285
14240.0,0.0011225210652938767
14244.0,0.029704042837462433
14248.0,0.059717205860073105
14252.0,0.08995997615886822
14256.0,0.11618346488520169
14260.0,0.1286871716997567
14264.0,0.1368000744083899
14268.0,0.18384804791457798
14272.0,0.19418712155510592
14276.0,0.21921589149681042
14280.0,0.22627131494804445
14284.0,0.2523129745109973
14288.0,0.2669245692090439
14292.0,0.24846348698858906
14296.0,0.26765705239701576
14300.0,0.005056997212988388
14304.0,-0.004880977955732092
14308.0,0.0016560451895277842
14312.0,0.006221846218882381
14316.0,-0.011540913446193086
14320.0,-0.00928635655212642
14324.0,0.005660527911890133
14328.0,0.003729426348859689
14332.0,0.006649600352083467
14336.0,0.00024393829243946695
14340.0,0.002945846221234412
14344.0,0.009867696359246551
14348.0,0.05220485205114881
14352.0,0.09263538572740318
14356.0,0.09995121824415755
14360.0,0.10019285257220371
14364.0,0.1376125811144593
14368.0,0.1540775915858276
14372.0,0.1809985642253285
14376.0,0.19405289108223295
14380.0,0.1880708806386484
14384.0,0.16280705006521157
14388.0,0.16052528832473617
14392.0,0.15472892906747845
14396.0,0.13970701319997497
14400.0,0.13479595593060115
14404.0,0.10156029941005427
14408.0,0.08247658002719083
14412.0,0.04581592564337314
14416.0,0.038966894948410935
14420.0,-0.008347860903080252
14424.0,0.010288660656667718
14428.0,-0.010978068183006033
14432.0,0.006434462121996799
14436.0,-0.0056883115427867285
14440.0,-0.005607383449395261
14444.0,0.019267901476418808
14448.0,0.010766458919602616
14452.0,0.005472227345933092
14456.0,0.006023072243068251
14460.0,-0.004079874450096727
14464.0,-0.008819773156803837
14468.0,-0.002110152082508799
14472.0,-0.0027832378783118213
14476.0,-0.004606666492552102
14480.0,0.011970651531182371
14484.0,0.0031458731492926047
14488.0,0.015905045235441197
14492.0,0.0026128126078114227
14496.0,0.004648824207023416
14500.0,-0.011653255225983261
14504.0,-0.040243041253790975
14508.0,-0.07937550584191622
14512.0,-0.11841539224848335
14516.0,-0.1547717841003358
14520.0,-0.014214378578967781
14524.0,0.17558245433024813
14528.0,0.35757954683931126
14532.0,0.5403684327557204
14536.0,0.7179984037265079
14540.0,0.895321801735571
14544.0,0.7009710528402997
14548.0,0.5433722791240676
14552.0,0.35061271855929055
14556.0,0.19376950345734303
14560.0,0.009890155787100799
14564.0,-0.07312754660545287
14568.0,-0.1357121286676582
14572.0,-0.20064054536746564
14576.0,-0.2744529916114632
14580.0,-0.20586218153595476
14584.0,-0.11836266077753892
14588.0,-0.052367307166658585
14592.0,0.004734399053109275
14596.0,-0.007447367353729173
14600.0,0.002123782242760002
14604.0,0.0004236839069768491
14608.0,0.012067386988565831
14612.0,0.007630506779729659
14616.0,0.007883847256414448
14620.0,-0.004694826000983746
14624.0,-0.006995664404800415
14628.0,0.013011495088813533
14632.0,-0.000676786733881948
14636.0,0.008170327078715418
14640.0,0.012841806440283612
14644.0,-0.0024404299665380168
14648.0,-0.014318879380564902
14652.0,0.002642209237025208
14656.0,-0.00040852702150084993
14660.0,0.0007528116869318702
14664.0,0.0069388647393288806
14668.0,-0.0001944664786510572
14672.0,0.0017954208497293486
14676.0,0.02014445797982151
14680.0,0.00484778768863882
14684.0,-0.002153131440170256
14688.0,0.009798012984211645
14692.0,0.00518061950125783
14696.0,-0.012871752466457664
14700.0,-0.0012539704850820417
14704.0,0.02408916228123385
14708.0,0.05287696816767581
14712.0,0.09419732416467072
14716.0,0.12409230491720093
14720.0,0.1280314263843148
14724.0,0.1669762076115452
14728.0,0.1932054656203039
14732.0,0.2145354820855707
14736.0,0.23575452878865108
14740.0,0.23939488452125474
14744.0,0.2276665622062467
14748.0,0.24685093442924083
14752.0,0.2628100951025436
14756.0,0.27150010756151266
14760.0,-0.0015144216341289845
14764.0,-0.002307491063517408
14768.0,-0.014457156564614737
14772.0,0.011638581429545873
14776.0,0.004267151589418584
14780.0,0.006799506892572582
14784.0,-0.013594013266167328
14788.0,-0.004037756476636369
14792.0,0.007033165758749912
14796.0,-0.010257087657483281
14800.0,-0.01385642631620939
14804.0,0.029677360024203327
14808.0,0.06034003384473743
14812.0,0.07734147029470125
14816.0,0.1057856399988454
14820.0,0.12755107994910062
14824.0,0.14939844849951994
14828.0,0.15400305767573336
14832.0,0.19089514638188265
14836.0,0.1726996451044036
14840.0,0.19706409726531174
14844.0,0.15926061605025998
14848.0,0.17881843999470545
14852.0,0.1608349574937247
14856.0,0.15127407345221536
14860.0,0.1508926910915035
14864.0,0.10797265609795258
14868.0,0.0853597045667555
14872.0,0.055750994773545864
14876.0,0.007787230075899574
14880.0,-0.004670092975599493
14884.0,0.000975505447078609
14888.0,0.02172672278504842
14892.0,0.010857118557512214
14896.0,-0.006226867546418678
14900.0,-0.02328862946020482
14904.0,-0.009156371257755294
14908.0,0.005649195024043588
14912.0,-0.002582191631897123
14916.0,-0.005958211434688939
14920.0,0.009215417766053658
14924.0,0.003458599624445908
14928.0,-0.016207684087981046
14932.0,0.025236509172626827
14936.0,0.003070675485441606
14940.0,0.008778567654080489
14944.0,-0.002138267910234152
14948.0,-0.0003830549508146624
14952.0,-0.004825475472617036
14956.0,-0.006404747810796151
14960.0,0.002368638101011963
14964.0,-0.03184509370677815
14968.0,-0.0656194457729195
14972.0,-0.11071664331069676
14976.0,-0.14447379340993494
14980.0,0.014617402470423299
14984.0,0.18863145987665808
14988.0,0.3628258759786489
14992.0,0.550203650392161
14996.0,0.7229710699225517
15000.0,0.8991088649049154
15004.0,0.701264876484771
15008.0,0.5405998596648302
15012.0,0.3604454640584735
15016.0,0.1857857010544109
15020.0,0.008174552729381843
15024.0,-0.08090074281449786
15028.0,-0.1348383583660632
15032.0,-0.19117602357043573
15036.0,-0.27476786092703903
15040.0,-0.2059263174134383
15044.0,-0.1312838028808107
15048.0,-0.07094177840558148
15052.0,-0.0064262993556547824
15056.0,-0.002105563169703118
15060.0,-0.010634116466700592
15064.0,-0.009362440652231916
15068.0,-0.010525204116609685
15072.0,-0.00018165031343918327
15076.0,0.0018779767154035603
15080.0,-0.017253537378417463
15084.0,-0.00548516826403437
15088.0,0.015846058123121322
15092.0,0.01159646213479121
15096.0,-0.007897325799208224
15100.0,-0.00534267719626238
15104.0,0.005574519914959529
15108.0,-0.003958791760782376
15112.0,-0.0032026589672790595
15116.0,0.002841992071790775
15120.0,0.025188941471071688
15124.0,0.001067501177842463
15128.0,0.0033202938777955743
15132.0,0.003526549493087673
15136.0,0.009140964767133657
15140.0,-0.016459830403278777
15144.0,0.0011972479104984742
15148.0,-0.0019438400701676185
15152.0,0.0024779048499547272
15156.0,-0.015461391941220539
15160.0,-0.022942928290602422
15164.0,0.03316182205708594
15168.0,0.06203702775290048
15172.0,0.10099766798016628
15176.0,0.11204019100742088
15180.0,0.1490873012743746
15184.0,0.1412205056447938
15188.0,0.1943257418992602
15192.0,0.205342468796418
15196.0,0.19625173268077825
15200.0,0.22081269594162575
15204.0,0.23630012265083866
15208.0,0.25692831466426835
15212.0,0.2547867916940451
15216.0,0.26402576574412456
15220.0,-0.0030162871021355148
15224.0,-0.017523366474373664
15228.0,0.0024876231542901722
15232.0,0.01076360805496382
15236.0,-0.0051515229329516425
15240.0,-0.004869127298475402
15244.0,-0.004998143058869543
15248.0,0.004326663058138668
15252.0,0.005013685327074912
15256.0,0.007403648986069206
15260.0,0.008592049234625393
15264.0,0.031418624576747704
15268.0,0.05549701217428987
15272.0,0.10421316149205959
15276.0,0.0973812864955245
15280.0,0.14502542210903213
15284.0,0.1354519248829665
15288.0,0.17514652305153647
15292.0,0.1794777225585966
15296.0,0.18983314133113258
15300.0,0.18534027271102554
15304.0,0.17121470203524985
15308.0,0.16562685689413015
15312.0,0.1564646999647667
15316.0,0.16072284160386718
15320.0,0.1327981727083648
15324.0,0.11438913095484898
15328.0,0.09628599524675416
15332.0,0.05472168522870252
15336.0,0.02892318174523969
15340.0,0.009584963038357467
15344.0,-0.015591708034272836
15348.0,0.015619105478378343
15352.0,0.02371373082060234
15356.0,0.015840090175377065
15360.0,0.01740651783232415
15364.0,-0.017316548781507672
15368.0,-0.0030304419575088552
15372.0,0.014211650086113659
15376.0,0.0012205068890126947
15380.0,-0.0017109343397232893
15384.0,0.009516741703254901
15388.0,-0.012070072942476811
15392.0,0.004883248364346697
15396.0,0.001313983123284316
15400.0,-0.004671907856902704
15404.0,-0.002486191736482497
15408.0,-0.002118489787890532
15412.0,0.008561210981818173
15416.0,-0.00506515375623939
15420.0,-0.007158869666390628
15424.0,-0.026692329721488717
15428.0,-0.07182497593073463
15432.0,-0.12576077987969372
15436.0,-0.1573671573495348
15440.0,-0.0031171213278592107
15444.0,0.19633540490243434
15448.0,0.3640173529194792
15452.0,0.5517587754158341
15456.0,0.7277325730026297
15460.0,0.9048949801369917
15464.0,0.724131407693078
15468.0,0.5344337453038671
15472.0,0.38146299490562896
15476.0,0.1686812357724621
15480.0,-0.005846671889352716
15484.0,-0.06065643225375176
15488.0,-0.1605543270535215
15492.0,-0.17263805317959252
15496.0,-0.268977524725041
15500.0,-0.19548159405455182
15504.0,-0.1331469406389557
15508.0,-0.07081543942256956
15512.0,-0.005415139031337911
15516.0,-0.010590207003344232
15520.0,0.017822366230367107
15524.0,0.014072738260955666
15528.0,0.0025376817781059746
15532.0,0.0012688965063734198
15536.0,-0.009008861654584732
15540.0,0.006903552454979393
15544.0,-0.0016155246570782773
15548.0,-0.007244023458626253
15552.0,0.002029872128983774
15556.0,-0.005386277210618415
15560.0,-0.020038940476100265
15564.0,0.00305265180243365
15568.0,-0.008700189763609539
15572.0,-0.005970558354370964
15576.0,0.015184616777278611
15580.0,0.01202351683767038
15584.0,-0.008509149857195468
15588.0,0.002702642974751503
15592.0,-0.011029091790936698
15596.0,0.001925859815921063
15600.0,0.005043711815728177
15604.0,0.004192208600339625
15608.0,-0.0018170324312987167
15612.0,-0.009033412314793333
15616.0,0.0017942561951265201
15620.0,-0.010153998269180394
15624.0,0.0351995360858265
15628.0,0.06590981103946661
15632.0,0.08371451862384112
15636.0,0.1077080413290193
15640.0,0.13604557837575296
15644.0,0.1609567263041938
15648.0,0.16365939072883967
15652.0,0.18619415408879855
15656.0,0.2176035101228569
15660.0,0.21059415821707733
15664.0,0.2596089881777618
15668.0,0.24076635624033407
15672.0,0.2597845057074079
15676.0,0.2580320633262524
15680.0,0.012462267559285646
15684.0,0.009673642486808671
15688.0,0.01339089521848368
15692.0,-0.008072929349568889
15696.0,-0.009383867815512715
15700.0,-7.567949381140278e-05
15704.0,0.010823107303021818
15708.0,-0.016088839712674767
15712.0,0.010073669641429866
15716.0,0.0030463357213683295
15720.0,-0.01558571321147261
15724.0,0.023575709091142365
15728.0,0.0749160912674908
15732.0,0.07646353453959957
15736.0,0.10529260907330192
15740.0,0.12989316646800972
15744.0,0.15541241321340635
15748.0,0.1656503798582884
15752.0,0.17110489843845272
15756.0,0.1773514520265187
15760.0,0.1733445163007263
15764.0,0.17235919801017632
15768.0,0.17287240500594347
15772.0,0.16443838956128803
15776.0,0.1482927170291889
15780.0,0.1375141980149289
15784.0,0.10580564635797549
15788.0,0.06414483839902835
15792.0,0.04038557773374392
15796.0,0.024933679586723746
15800.0,0.0033662003137112048
15804.0,0.003561324134823641
15808.0,0.0017541276464618828
15812.0,-0.0009437673795519851
15816.0,0.013379424677679906
15820.0,0.012823863510858026
15824.0,-0.011360012956139769
15828.0,0.018768886479255172
15832.0,-0.0010442579143452608
15836.0,0.003473897937690441
15840.0,-0.0071296025748416635
15844.0,0.004748483667355861
15848.0,0.003244076489554968
15852.0,0.008925981849798672
15856.0,-0.013904686238000652
15860.0,0.00534471314126985
15864.0,0.009702069715293913
15868.0,-0.003443217572914103
15872.0,0.0061336855852033405
15876.0,-0.0051788200260484045
15880.0,-0.004324380104680097
15884.0,-0.027080588515811382
15888.0,-0.0722074006188058
15892.0,-0.11503945970465379
15896.0,-0.1555853322038494
15900.0,-0.00049065975778277
15904.0,0.18607901143165767
15908.0,0.34509853394280027
15912.0,0.5578759645494508
15916.0,0.7241310399257012
15920.0,0.8957708883378298
15924.0,0.7097625746878194
15928.0,0.5495530507548454
15932.0,0.3574132669202464
15936.0,0.17376791939016467
15940.0,-0.009891976094638615
15944.0,-0.06046047266892298
15948.0,-0.14089274712924577
15952.0,-0.19611324907910524
15956.0,-0.281083764454364
15960.0,-0.19454433344685815
15964.0,-0.1443327526202353
15968.0,-0.07333032546484236
15972.0,0.0026376671893621516
15976.0,0.007327452265381537
15980.0,-0.005651447305155592
15984.0,0.02401897163375166
15988.0,-0.0026984523350048494
15992.0,-0.006980357330933914
15996.0,-0.0014372198376326392
16000.0,-0.004274696680971481
16004.0,-0.00339508382686834
16008.0,-0.005078507779315885
16012.0,-0.00029842147485114874
16016.0,-0.013315267185805208
16020.0,0.00873299830033923
16024.0,-0.0010935000658445766
16028.0,0.020761509125286164
16032.0,-0.018729630761972704
16036.0,0.009863431815639144
16040.0,-0.011113196336520607
16044.0,0.0025244972217959376
16048.0,-0.009033478587003776
16052.0,-0.003740282404185568
16056.0,-0.00010817883575737781
16060.0,0.0013460366070247951
16064.0,0.0030801207888667276
16068.0,-0.008671289816032714
16072.0,0.008591836956609094
16076.0,0.0048587871761544875
16080.0,0.004231789168310616
16084.0,0.04492854575276602
16088.0,0.06941044830039077
16092.0,0.08637939676624448
16096.0,0.11006501563311594
16100.0,0.12780175477089786
16104.0,0.1480628480546178
16108.0,0.17618324361656243
16112.0,0.21590365042579215
16116.0,0.23122012240098563
16120.0,0.23310452663294498
16124.0,0.25482529861899594
16128.0,0.2373728847616473
16132.0,0.25314338078762466
16136.0,0.26248671412304514
16140.0,0.009708328973047228
16144.0,0.0040333935569592935
16148.0,-0.001873903907206251
16152.0,0.021174456340564484
16156.0,-0.0027294291169383655
16160.0,0.0038262343790205783
16164.0,-0.0037618260058110854
16168.0,-0.010127579256374591
16172.0,-0.0052829017801930556
16176.0,-0.006898694174755953
16180.0,0.013741985376547186
16184.0,0.036312056955116336
16188.0,0.0652025360950621
16192.0,0.07502308162485935
16196.0,0.10930912959006085
16200.0,0.1070244317684996
16204.0,0.14357811108176757
16208.0,0.16587247331225194
16212.0,0.17254067208962054
16216.0,0.1957327330993956
16220.0,0.19540569675572247
16224.0,0.17726776980537812
16228.0,0.1658875923612842
16232.0,0.16745068544780412
16236.0,0.13449045149678104
16240.0,0.09947168737532586
16244.0,0.09217569741215928
16248.0,0.0894094077870751
16252.0,0.040427733595113265
16256.0,0.04347897370912194
16260.0,0.006435020990535244
16264.0,-0.01116281671231612
16268.0,0.008201982394180785
16272.0,-0.0024346191501514918
16276.0,0.010339337276857572
16280.0,0.0082668255251449
16284.0,-0.004353850316029559
16288.0,0.0022402821395008203
16292.0,-0.0006672723178003247
16296.0,-0.01160248651982006
16300.0,-0.0037039983923613093
16304.0,0.010483797091522305
16308.0,0.011123383916210448
16312.0,0.004652572217214446
16316.0,6.149065557060123e-05
16320.0,-0.012284101803792203
16324.0,0.013594210813680284
16328.0,0.004119171258236935
16332.0,0.018003918408995515
16336.0,0.019817821453648625
16340.0,0.014032225484598313
16344.0,-0.02680722966579409
16348.0,-0.0895445424921261
16352.0,-0.08784421357320338
16356.0,-0.14759812174661355
16360.0,0.008577012320872431
16364.0,0.1914375960347435
16368.0,0.3538972471725426
16372.0,0.5506912855186664
16376.0,0.6989544262167365
16380.0,0.9165142535197032
16384.0,0.7149233652532335
16388.0,0.5248259826323711
16392.0,0.360070076352509
16396.0,0.19308833749864315
16400.0,-0.0021382620625678412
16404.0,-0.07310520919892147
16408.0,-0.13899570378243947
16412.0,-0.19110646333878997
16416.0,-0.2788617582723634
16420.0,-0.2052472320680623
16424.0,-0.14765135437414967
16428.0,-0.050780910776692126
16432.0,0.006880789194898027
16436.0,0.008609511511808797
16440.0,-0.004684092518602319
16444.0,0.006494209980777341
16448.0,0.004928691143243931
16452.0,-0.01493479599424452
16456.0,-0.017388059166239186
16460.0,-0.0006979074139910072
16464.0,0.0101631183771232
16468.0,-0.004455574974548638
16472.0,0.014071403663528402
16476.0,0.007526849635202032
16480.0,-0.004706289683754637
16484.0,-0.006561037642564139
16488.0,-0.014617282932993456
16492.0,0.0044756087350783244
16496.0,-0.0009749489929666406
16500.0,-0.01300473725193109
16504.0,-0.0036765851919031258
16508.0,0.013880565119063134
16512.0,0.008298826345845582
16516.0,-0.002975104880606855
16520.0,0.007758266755494286
16524.0,-0.010020932719220624
16528.0,0.015811851196209138
16532.0,-0.02446117997380224
16536.0,0.01069867403531533
16540.0,0.023736623087475588
16544.0,0.02917962882694975
16548.0,0.06824955506995639
16552.0,0.07995434748892245
16556.0,0.1042541229588095
16560.0,0.13952813140449233
16564.0,0.1608996198081731
16568.0,0.2088678372534558
16572.0,0.21928441457743758
16576.0,0.19782536371832615
16580.0,0.21482447114138323
16584.0,0.24449609300270825
16588.0,0.27574790872109545
16592.0,0.2557363671763411
16596.0,0.2669970408722022
16600.0,-0.005192854842777759
16604.0,-0.007436820055360477
16608.0,0.0217789340687882
16612.0,-0.010085563886674054
16616.0,0.0009177800460748764
16620.0,0.015090466704170372
16624.0,0.019852244388619204
16628.0,0.015175258124753614
16632.0,0.022132660411302768
16636.0,0.010830538956967714
16640.0,-0.005334740396743371
16644.0,0.03499295671862999
16648.0,0.06767659383255778
16652.0,0.0807493633204858
16656.0,0.11084611638984426
16660.0,0.12602664236740754
16664.0,0.13467123955479418
16668.0,0.146209723821117
16672.0,0.16582515771481432
16676.0,0.1689033644005927
16680.0,0.16197591066204328
16684.0,0.1950591053989895
16688.0,0.1694184949050062
16692.0,0.1635539818600945
16696.0,0.1539791950764898
16700.0,0.13595380680645308
16704.0,0.10904267414602399
16708.0,0.08107762610161734
16712.0,0.06223216333268186
16716.0,0.018819776861733948
16720.0,-0.014844257011579876
16724.0,-0.011300434784540373
16728.0,-0.007635504346124604
16732.0,0.011439229409548897
16736.0,-0.009218047413656503
16740.0,-0.009952939134584563
16744.0,0.000634337836134518
16748.0,-0.00547039202065565
16752.0,0.007552357536456368
16756.0,0.00016361739955836585
16760.0,-0.008753702817520352
16764.0,0.004954756422045045
16768.0,-0.0034292157389757996
16772.0,0.01445332238705636
16776.0,-0.0071232982316342995
16780.0,-0.008688974626254774
16784.0,0.008464769942469159
16788.0,0.016278759118926896
16792.0,-0.005232978001514414
16796.0,-0.024783131900975745
16800.0,-0.010422572370377315
16804.0,-0.043540994444463646
16808.0,-0.08316034468457978
16812.0,-0.11687270610712854
16816.0,-0.14771838294614936
16820.0,-0.0011340192240111826
16824.0,0.1889518991876673
16828.0,0.36036762345854473
16832.0,0.5486762138001323
16836.0,0.7230776929064556
16840.0,0.8875090637447945
16844.0,0.726596529105837
16848.0,0.5449706225714566
16852.0,0.3504538938864584
16856.0,0.16935243106548864
16860.0,-0.005719268974369617
16864.0,-0.05742415204535399
16868.0,-0.1405655048574547
16872.0,-0.20733166877732273
16876.0,-0.27269894699840586
16880.0,-0.20349535962931728
16884.0,-0.14423758779966284
16888.0,-0.06999848702381001
16892.0,-0.005051003863289916
16896.0,-0.014592331128951048
16900.0,0.0076390119031861286
16904.0,0.008233201766719808
16908.0,0.0025694064420925485
16912.0,0.004258897221929901
16916.0,0.012256890849547975
16920.0,0.0016602057596398637
16924.0,-0.012413035569967232
16928.0,-0.005596819249593958
16932.0,0.011113215110279509
16936.0,-0.008371205267356102
16940.0,-0.006939935121358317
16944.0,-0.01088762547338607
16948.0,-0.00517117657796311
16952.0,0.005953291745749587
16956.0,-0.014227253175096117
16960.0,-0.008851700269373767
16964.0,-0.013339258127168938
16968.0,-0.000660830406397152
16972.0,-0.0130522388172774
16976.0,0.003319977530252935
16980.0,-0.0052405440076510055
16984.0,0.00015742885277731714
16988.0,-0.01259513071228652
16992.0,0.0164169125127463
16996.0,-0.02051019278554724
17000.0,0.00467814195460679
17004.0,0.03619546059277187
17008.0,0.05811573799892279
17012.0,0.09827456998750736
17016.0,0.1160358629934119
17020.0,0.14538875628546802
17024.0,0.16562466398784736
17028.0,0.19477834286402532
17032.0,0.21331881704510586
17036.0,0.21231856175967959
17040.0,0.23512539824343956
17044.0,0.2548006265713073
17048.0,0.25072874922211663
17052.0,0.2607109555639168
17056.0,0.2522156946610956
17060.0,0.0006066564597594036
17064.0,0.01366476611024502
17068.0,-0.0002111460876666601
17072.0,0.0039896247847326675
17076.0,-0.012974356680242114
17080.0,-0.008280866216075404
17084.0,0.0031397832780968023
17088.0,0.014108686676804871
17092.0,0.012833850690942785
17096.0,-0.018633476820684235
17100.0,-0.0028557518335920835
17104.0,0.03026290415500868
17108.0,0.048968266041461705
17112.0,0.08201936650241316
17116.0,0.11877777502263978
17120.0,0.13324204233976214
17124.0,0.1546852823514325
17128.0,0.14990630196626187
17132.0,0.1536107129392396
17136.0,0.17978329737508322
17140.0,0.18413173908758254
17144.0,0.1785280976446067
17148.0,0.18519815353881558
17152.0,0.15949518883167793
17156.0,0.14171829732486022
17160.0,0.12447714153907803
17164.0,0.09879495617272858
17168.0,0.10052194363093589
17172.0,0.0746039801896484
17176.0,0.031702284495073854
17180.0,0.010810313600658232
17184.0,-0.007828551961557564
17188.0,0.0005944480638572532
17192.0,-0.0069568046463225446
17196.0,0.0011666845082314685
17200.0,0.0002532976123312598
17204.0,-0.01018481039781523
17208.0,-0.01358539021778395
17212.0,-0.0032650593889570778
17216.0,0.0047589030638540055
17220.0,-0.004794365994462847
17224.0,-0.005963861517918868
17228.0,-0.0039439283802144695
17232.0,-0.012770260293904948
17236.0,-0.00971302868926329
17240.0,-0.0034717917671898747
17244.0,0.01098159313883287
17248.0,0.004270957029624668
17252.0,0.008656268827102763
17256.0,0.000858637960674168
17260.0,0.0008666330615800492
17264.0,-0.044076073784647375
17268.0,-0.07897492061358755
17272.0,-0.11210543080850871
17276.0,-0.13122045613815073
17280.0,-0.008968403136452035
17284.0,0.18191408562434996
17288.0,0.36537821420402405
17292.0,0.5229040772776172
17296.0,0.715740872342009
17300.0,0.9010368099781845
17304.0,0.7162690710366887
17308.0,0.5476683553863572
17312.0,0.36520099174538734
