time,value
0,93.0
20,93.0
40,93.0
60,95.0
80,93.0
100,92.0
120,95.0
140,94.0
160,253.0
180,511.0
200,509.0
220,506.0
240,502.0
260,497.0
280,491.0
300,481.0
320,479.0
340,475.0
360,473.0
380,465.0
400,464.0
420,464.0
440,464.0
460,464.0
480,469.0
500,478.0
520,480.0
540,483.0
560,487.0
580,498.0
600,511.0
620,526.0
640,530.0
660,554.0
680,560.0
700,567.0
720,590.0
740,603.0
760,612.0
780,637.0
800,650.0
820,659.0
840,667.0
860,672.0
880,678.0
900,683.0
920,688.0
940,691.0
960,690.0
980,692.0
1000,690.0
1020,676.0
1040,685.0
1060,681.0
1080,674.0
1100,671.0
1120,663.0
1140,656.0
1160,644.0
1180,641.0
1200,633.0
1220,629.0
1240,626.0
1260,623.0
1280,619.0
1300,619.0
1320,621.0
1340,619.0
1360,616.0
1380,619.0
1400,619.0
1420,623.0
1440,625.0
1460,629.0
1480,633.0
1500,638.0
1520,644.0
1540,647.0
1560,655.0
1580,661.0
1600,671.0
1620,682.0
1640,691.0
1660,699.0
1680,706.0
1700,720.0
1720,723.0
1740,734.0
1760,746.0
1780,752.0
1800,755.0
1820,771.0
1840,775.0
1860,782.0
1880,784.0
1900,788.0
1920,757.0
1940,730.0
1960,742.0
1980,748.0
2000,754.0
2020,763.0
2040,773.0
2060,781.0
2080,785.0
2100,797.0
2120,809.0
2140,816.0
2160,823.0
2180,834.0
2200,844.0
2220,856.0
2240,865.0
2260,879.0
2280,881.0
2300,894.0
2320,902.0
2340,912.0
2360,921.0
2380,931.0
2400,938.0
2420,945.0
2440,955.0
2460,961.0
2480,963.0
2500,973.0
2520,975.0
2540,976.0
2560,982.0
2580,985.0
2600,988.0
2620,987.0
2640,987.0
2660,987.0
2680,981.0
2700,983.0
2720,975.0
2740,971.0
2760,966.0
2780,961.0
2800,958.0
2820,951.0
2840,944.0
2860,931.0
2880,922.0
2900,921.0
2920,913.0
2940,900.0
2960,891.0
2980,903.0
3000,887.0
3020,883.0
3040,882.0
3060,883.0
3080,886.0
3100,887.0
3120,891.0
3140,896.0
3160,897.0
3180,125.0
3200,124.0
3220,114.0
3240,115.0
3260,116.0
3280,992.0
3300,976.0
3320,969.0
3340,965.0
3360,959.0
3380,954.0
3400,951.0
3420,955.0
3440,977.0
3460,999.0
3480,771.0
3500,757.0
3520,760.0
3540,720.0
3560,704.0
3580,689.0
3600,672.0
3620,782.0
3640,652.0
3660,631.0
3680,743.0
3700,602.0
3720,586.0
3740,580.0
3760,579.0
3780,575.0
3800,573.0
3820,751.0
3840,576.0
3860,578.0
3880,753.0
3900,586.0
3920,699.0
3940,597.0
3960,597.0
3980,603.0
4000,611.0
4020,617.0
4040,624.0
4060,627.0
4080,816.0
4100,633.0
4120,639.0
4140,821.0
4160,640.0
4180,799.0
4200,646.0
4220,639.0
4240,631.0
4260,769.0
4280,621.0
4300,608.0
4320,603.0
4340,803.0
4360,589.0
4380,577.0
4400,623.0
4420,555.0
4440,541.0
4460,715.0
4480,525.0
4500,502.0
4520,681.0
4540,486.0
4560,470.0
4580,608.0
4600,451.0
4620,440.0
4640,411.0
4660,612.0
4680,401.0
4700,397.0
4720,593.0
4740,393.0
4760,585.0
4780,394.0
4800,403.0
4820,414.0
4840,410.0
4860,426.0
4880,436.0
4900,457.0
4920,463.0
4940,478.0
4960,476.0
4980,483.0
5000,495.0
5020,493.0
5040,498.0
5060,519.0
5080,496.0
5100,509.0
5120,510.0
5140,508.0
5160,509.0
5180,511.0
5200,501.0
5220,503.0
5240,511.0
5260,491.0
5280,482.0
5300,475.0
5320,464.0
5340,458.0
5360,318.0
5380,331.0
5400,410.0
5420,347.0
5440,351.0
5460,358.0
5480,363.0
5500,368.0
5520,363.0
5540,406.0
5560,354.0
5580,558.0
5600,342.0
5620,529.0
5640,322.0
5660,486.0
5680,304.0
5700,464.0
5720,266.0
5740,462.0
5760,242.0
5780,432.0
5800,223.0
5820,210.0
5840,206.0
5860,194.0
5880,357.0
5900,181.0
5920,176.0
5940,383.0
5960,171.0
5980,171.0
6000,176.0
6020,167.0
6040,372.0
6060,176.0
6080,178.0
6100,195.0
6120,190.0
6140,195.0
6160,212.0
6180,209.0
6200,331.0
6220,233.0
6240,234.0
6260,433.0
6280,256.0
6300,263.0
6320,458.0
6340,278.0
6360,290.0
6380,499.0
6400,301.0
6420,306.0
6440,316.0
6460,314.0
6480,401.0
6500,331.0
6520,322.0
6540,405.0
6560,321.0
6580,319.0
6600,306.0
6620,308.0
6640,400.0
6660,299.0
6680,288.0
6700,448.0
6720,272.0
6740,442.0
6760,385.0
6780,300.0
6800,315.0
6820,327.0
6840,336.0
6860,346.0
6880,353.0
6900,368.0
6920,373.0
6940,383.0
6960,387.0
6980,397.0
7000,396.0
7020,399.0
7040,400.0
7060,399.0
7080,400.0
7100,398.0
7120,395.0
7140,392.0
7160,386.0
7180,385.0
7200,379.0
7220,375.0
7240,368.0
7260,363.0
7280,358.0
7300,353.0
7320,349.0
7340,342.0
7360,339.0
7380,336.0
7400,334.0
7420,330.0
7440,331.0
7460,326.0
7480,327.0
7500,326.0
7520,330.0
7540,331.0
7560,336.0
7580,337.0
7600,339.0
7620,350.0
7640,352.0
7660,359.0
7680,369.0
7700,374.0
7720,384.0
7740,393.0
7760,401.0
7780,415.0
7800,420.0
7820,432.0
7840,448.0
7860,459.0
7880,467.0
7900,478.0
7920,496.0
7940,507.0
7960,527.0
7980,537.0
8000,552.0
8020,561.0
8040,575.0
8060,585.0
8080,595.0
8100,608.0
8120,619.0
8140,624.0
8160,631.0
8180,639.0
8200,641.0
8220,642.0
8240,646.0
8260,643.0
8280,643.0
8300,640.0
8320,638.0
8340,635.0
8360,625.0
8380,621.0
8400,617.0
8420,610.0
8440,605.0
8460,597.0
8480,593.0
8500,591.0
8520,586.0
8540,584.0
8560,578.0
8580,579.0
8600,581.0
8620,582.0
8640,583.0
8660,589.0
8680,593.0
8700,597.0
8720,604.0
8740,615.0
8760,624.0
8780,635.0
8800,640.0
8820,653.0
8840,663.0
8860,677.0
8880,688.0
8900,700.0
8920,825.0
8940,869.0
8960,868.0
8980,867.0
9000,867.0
9020,870.0
9040,871.0
9060,877.0
9080,880.0
9100,880.0
9120,890.0
9140,897.0
9160,908.0
9180,913.0
9200,923.0
9220,935.0
9240,946.0
9260,960.0
9280,969.0
9300,979.0
9320,998.0
9340,241.0
9360,245.0
9380,608.0
9400,673.0
9420,702.0
9440,771.0
9460,755.0
9480,784.0
9500,816.0
9520,835.0
9540,900.0
9560,929.0
9580,961.0
9600,980.0
9620,139.0
9640,149.0
9660,143.0
9680,790.0
9700,171.0
9720,173.0
9740,183.0
9760,191.0
9780,190.0
9800,212.0
9820,214.0
9840,216.0
9860,239.0
9880,240.0
9900,249.0
9920,249.0
9940,249.0
9960,505.0
9980,265.0
10000,267.0
10020,249.0
10040,512.0
10060,280.0
10080,280.0
10100,522.0
10120,464.0
10140,432.0
10160,595.0
10180,351.0
10200,320.0
10220,292.0
10240,251.0
10260,261.0
10280,195.0
10300,368.0
10320,132.0
10340,314.0
10360,98.0
10380,95.0
10400,98.0
10420,93.0
10440,146.0
10460,95.0
10480,97.0
10500,108.0
10520,97.0
10540,144.0
10560,94.0
10580,245.0
10600,95.0
10620,97.0
10640,80.0
10660,93.0
10680,305.0
10700,91.0
10720,97.0
10740,97.0
10760,94.0
10780,101.0
10800,93.0
10820,97.0
10840,97.0
10860,99.0
10880,304.0
10900,95.0
10920,96.0
10940,99.0
10960,94.0
10980,96.0
11000,99.0
11020,96.0
11040,112.0
11060,94.0
11080,304.0
11100,95.0
11120,97.0
11140,97.0
11160,94.0
11180,304.0
11200,95.0
11220,96.0
11240,96.0
11260,93.0
11280,97.0
11300,95.0
11320,301.0
11340,95.0
11360,95.0
11380,101.0
11400,94.0
11420,95.0
11440,98.0
11460,95.0
11480,304.0
11500,96.0
11520,91.0
11540,167.0
11560,92.0
11580,97.0
11600,96.0
11620,94.0
11640,304.0
11660,95.0
11680,96.0
11700,110.0
11720,97.0
11740,96.0
11760,115.0
11780,94.0
11800,93.0
11820,97.0
11840,94.0
11860,301.0
11880,131.0
11900,96.0
11920,288.0
11940,95.0
11960,93.0
11980,94.0
12000,92.0
12020,95.0
12040,94.0
12060,95.0
12080,93.0
12100,94.0
12120,95.0
12140,96.0
12160,128.0
12180,154.0
12200,190.0
12220,227.0
12240,290.0
12260,327.0
12280,371.0
12300,430.0
12320,496.0
12340,573.0
12360,637.0
12380,709.0
12400,765.0
12420,816.0
12440,870.0
12460,945.0
12480,998.0
12500,241.0
12520,999.0
12540,985.0
12560,912.0
12580,683.0
12600,652.0
12620,642.0
12640,624.0
12660,609.0
12680,577.0
12700,561.0
12720,542.0
12740,506.0
12760,482.0
12780,476.0
12800,465.0
12820,459.0
12840,450.0
12860,447.0
12880,438.0
12900,434.0
12920,435.0
12940,435.0
12960,435.0
12980,437.0
13000,445.0
13020,449.0
13040,456.0
13060,464.0
13080,475.0
13100,488.0
13120,496.0
13140,507.0
13160,511.0
13180,528.0
13200,543.0
13220,547.0
13240,559.0
13260,571.0
13280,577.0
13300,582.0
13320,592.0
13340,596.0
13360,604.0
13380,610.0
13400,612.0
13420,611.0
13440,608.0
13460,607.0
13480,597.0
13500,591.0
13520,581.0
13540,572.0
13560,558.0
13580,535.0
13600,511.0
13620,506.0
13640,498.0
13660,487.0
13680,481.0
13700,474.0
13720,467.0
13740,464.0
13760,459.0
13780,457.0
13800,452.0
13820,453.0
13840,454.0
13860,457.0
13880,462.0
13900,464.0
13920,471.0
13940,477.0
13960,485.0
13980,496.0
14000,527.0
14020,525.0
14040,535.0
14060,550.0
14080,564.0
14100,582.0
14120,592.0
14140,606.0
14160,619.0
14180,720.0
14200,659.0
14220,658.0
14240,658.0
14260,662.0
14280,666.0
14300,672.0
14320,681.0
14340,688.0
14360,702.0
14380,720.0
14400,729.0
14420,753.0
14440,784.0
14460,816.0
14480,833.0
14500,859.0
14520,887.0
14540,913.0
14560,944.0
14580,957.0
14600,979.0
14620,194.0
14640,196.0
14660,198.0
14680,283.0
14700,276.0
14720,275.0
14740,275.0
14760,206.0
14780,183.0
14800,183.0
14820,999.0
14840,101.0
14860,123.0
14880,104.0
14900,976.0
14920,814.0
14940,813.0
14960,927.0
14980,104.0
15000,104.0
15020,103.0
15040,176.0
15060,177.0
15080,180.0
15100,217.0
15120,216.0
15140,212.0
15160,232.0
15180,253.0
15200,258.0
15220,404.0
15240,404.0
15260,404.0
15280,943.0
15300,218.0
15320,225.0
15340,473.0
15360,250.0
15380,250.0
15400,675.0
15420,279.0
15440,298.0
15460,280.0
15480,255.0
15500,277.0
15520,253.0
15540,487.0
15560,197.0
15580,215.0
15600,940.0
15620,254.0
15640,258.0
15660,343.0
15680,343.0
15700,278.0
15720,279.0
15740,149.0
15760,150.0
15780,157.0
15800,147.0
15820,144.0
15840,994.0
15860,993.0
15880,999.0
15900,999.0
15920,125.0
15940,136.0
15960,138.0
15980,941.0
16000,866.0
16020,807.0
16040,739.0
16060,660.0
16080,605.0
16100,535.0
16120,470.0
16140,403.0
16160,368.0
16180,318.0
16200,284.0
16220,253.0
16240,220.0
16260,202.0
16280,186.0
16300,173.0
16320,176.0
16340,190.0
16360,210.0
16380,263.0
16400,334.0
16420,382.0
16440,472.0
16460,551.0
16480,627.0
16500,714.0
16520,791.0
16540,902.0
16560,974.0
16580,250.0
16600,250.0
16620,267.0
16640,277.0
16660,280.0
16680,928.0
16700,404.0
16720,405.0
16740,405.0
16760,177.0
16780,171.0
16800,167.0
16820,261.0
16840,261.0
16860,286.0
16880,289.0
16900,295.0
16920,284.0
16940,287.0
16960,275.0
16980,273.0
17000,284.0
17020,288.0
17040,295.0
17060,961.0
17080,899.0
17100,784.0
17120,727.0
17140,662.0
17160,573.0
17180,704.0
17200,446.0
17220,413.0
17240,461.0
17260,386.0
17280,389.0
17300,410.0
17320,421.0
17340,444.0
17360,451.0
17380,496.0
17400,527.0
17420,769.0
17440,563.0
17460,781.0
17480,594.0
17500,812.0
17520,615.0
17540,641.0
17560,635.0
17580,851.0
17600,656.0
17620,698.0
17640,666.0
17660,717.0
17680,685.0
17700,691.0
17720,707.0
17740,790.0
17760,725.0
17780,739.0
17800,752.0
17820,767.0
17840,784.0
17860,798.0
17880,816.0
17900,843.0
17920,855.0
17940,875.0
17960,900.0
17980,917.0
18000,937.0
18020,967.0
18040,988.0
18060,249.0
18080,251.0
18100,239.0
18120,238.0
18140,248.0
18160,264.0
18180,262.0
18200,590.0
18220,236.0
18240,235.0
18260,234.0
18280,403.0
18300,403.0
18320,403.0
18340,157.0
18360,145.0
18380,153.0
18400,939.0
18420,910.0
18440,848.0
18460,629.0
18480,661.0
18500,670.0
18520,697.0
18540,721.0
18560,734.0
18580,758.0
18600,791.0
18620,807.0
18640,833.0
18660,869.0
18680,880.0
18700,901.0
18720,954.0
18740,973.0
18760,210.0
18780,116.0
18800,115.0
18820,131.0
18840,135.0
18860,147.0
18880,181.0
18900,162.0
18920,164.0
18940,175.0
18960,176.0
18980,201.0
19000,191.0
19020,168.0
19040,166.0
19060,163.0
19080,160.0
19100,184.0
19120,167.0
19140,150.0
19160,152.0
19180,159.0
19200,173.0
19220,173.0
19240,175.0
19260,233.0
19280,242.0
19300,247.0
19320,332.0
19340,336.0
19360,195.0
19380,175.0
19400,162.0
19420,973.0
19440,784.0
19460,576.0
19480,569.0
19500,565.0
19520,561.0
19540,560.0
19560,558.0
19580,560.0
19600,559.0
19620,560.0
19640,562.0
19660,569.0
19680,576.0
19700,580.0
19720,592.0
19740,598.0
19760,609.0
19780,624.0
19800,635.0
19820,649.0
19840,665.0
19860,685.0
19880,703.0
19900,727.0
19920,746.0
19940,763.0
19960,784.0
19980,816.0
20000,833.0
20020,859.0
20040,890.0
20060,911.0
20080,940.0
20100,967.0
20120,994.0
20140,123.0
20160,123.0
20180,116.0
20200,163.0
20220,152.0
20240,999.0
20260,999.0
20280,955.0
20300,979.0
20320,963.0
20340,947.0
20360,924.0
20380,909.0
20400,896.0
20420,873.0
20440,861.0
20460,847.0
20480,832.0
20500,823.0
20520,816.0
20540,814.0
20560,807.0
20580,805.0
20600,807.0
20620,814.0
20640,817.0
20660,826.0
20680,838.0
20700,848.0
20720,858.0
20740,880.0
20760,887.0
20780,899.0
20800,919.0
20820,932.0
20840,944.0
20860,965.0
20880,976.0
20900,981.0
20920,985.0
20940,977.0
20960,960.0
20980,946.0
21000,942.0
21020,925.0
21040,912.0
21060,904.0
21080,893.0
21100,880.0
21120,877.0
21140,866.0
21160,862.0
21180,857.0
21200,856.0
21220,853.0
21240,854.0
21260,864.0
21280,874.0
21300,887.0
21320,907.0
21340,925.0
21360,954.0
21380,982.0
21400,955.0
21420,869.0
21440,754.0
21460,670.0
21480,791.0
21500,506.0
21520,462.0
21540,403.0
21560,337.0
21580,303.0
21600,263.0
21620,226.0
21640,207.0
21660,192.0
21680,179.0
21700,167.0
21720,165.0
21740,163.0
21760,171.0
21780,194.0
21800,192.0
21820,206.0
21840,223.0
21860,247.0
21880,270.0
21900,285.0
21920,313.0
21940,346.0
21960,379.0
21980,415.0
22000,431.0
22020,454.0
22040,483.0
22060,534.0
22080,564.0
22100,596.0
22120,618.0
22140,659.0
22160,688.0
22180,711.0
22200,733.0
22220,772.0
22240,791.0
22260,813.0
22280,832.0
22300,852.0
22320,870.0
22340,881.0
22360,913.0
22380,927.0
22400,935.0
22420,944.0
22440,954.0
22460,959.0
22480,960.0
22500,960.0
22520,966.0
22540,971.0
22560,973.0
22580,975.0
22600,975.0
22620,976.0
22640,977.0
22660,978.0
22680,983.0
22700,987.0
22720,991.0
22740,996.0
22760,168.0
22780,163.0
22800,214.0
22820,216.0
22840,219.0
22860,234.0
22880,164.0
22900,162.0
22920,486.0
22940,179.0
22960,177.0
22980,176.0
23000,172.0
23020,151.0
23040,401.0
23060,401.0
23080,398.0
23100,240.0
23120,211.0
23140,242.0
23160,118.0
23180,304.0
23200,96.0
23220,97.0
23240,101.0
23260,106.0
23280,94.0
23300,95.0
23320,298.0
23340,97.0
23360,95.0
23380,300.0
23400,94.0
23420,97.0
23440,300.0
23460,112.0
23480,128.0
23500,302.0
23520,622.0
23540,608.0
23560,800.0
23580,598.0
23600,591.0
23620,783.0
23640,576.0
23660,571.0
23680,771.0
23700,560.0
23720,554.0
23740,555.0
23760,544.0
23780,735.0
23800,540.0
23820,533.0
23840,738.0
23860,545.0
23880,538.0
23900,594.0
23920,544.0
23940,549.0
23960,609.0
23980,560.0
24000,564.0
24020,634.0
24040,578.0
24060,587.0
24080,656.0
24100,604.0
24120,619.0
24140,633.0
24160,638.0
24180,662.0
24200,819.0
24220,693.0
24240,704.0
24260,917.0
24280,724.0
24300,941.0
24320,736.0
24340,731.0
24360,735.0
24380,762.0
24400,729.0
24420,720.0
24440,710.0
24460,912.0
24480,702.0
24500,754.0
24520,661.0
24540,642.0
24560,629.0
24580,817.0
24600,603.0
24620,592.0
24640,565.0
24660,565.0
24680,762.0
24700,549.0
24720,545.0
24740,741.0
24760,534.0
24780,511.0
24800,729.0
24820,537.0
24840,528.0
24860,718.0
24880,539.0
24900,533.0
24920,737.0
24940,550.0
24960,545.0
24980,754.0
25000,564.0
25020,572.0
25040,783.0
25060,598.0
25080,601.0
25100,709.0
25120,647.0
25140,838.0
25160,627.0
25180,618.0
25200,818.0
25220,611.0
25240,593.0
25260,595.0
25280,579.0
25300,589.0
25320,576.0
25340,571.0
25360,767.0
25380,574.0
25400,571.0
25420,786.0
25440,581.0
25460,786.0
25480,595.0
25500,605.0
25520,829.0
25540,626.0
25560,637.0
25580,656.0
25600,659.0
25620,876.0
25640,691.0
25660,700.0
25680,912.0
25700,723.0
25720,741.0
25740,757.0
25760,768.0
25780,866.0
25800,785.0
25820,794.0
25840,803.0
25860,804.0
25880,816.0
25900,809.0
25920,800.0
25940,788.0
25960,901.0
25980,760.0
26000,946.0
26020,737.0
26040,721.0
26060,708.0
26080,690.0
26100,681.0
26120,662.0
26140,860.0
26160,646.0
26180,841.0
26200,628.0
26220,760.0
26240,625.0
26260,825.0
26280,632.0
26300,842.0
26320,654.0
26340,869.0
26360,682.0
26380,695.0
26400,717.0
26420,740.0
26440,753.0
26460,783.0
26480,796.0
26500,828.0
26520,848.0
26540,869.0
26560,890.0
26580,909.0
26600,924.0
26620,944.0
26640,959.0
26660,966.0
26680,978.0
26700,992.0
26720,999.0
26740,976.0
26760,182.0
26780,179.0
26800,198.0
26820,173.0
26840,175.0
26860,168.0
26880,167.0
26900,206.0
26920,208.0
26940,210.0
26960,211.0
26980,112.0
27000,198.0
27020,197.0
27040,232.0
27060,232.0
27080,211.0
27100,212.0
27120,211.0
27140,211.0
27160,255.0
27180,943.0
27200,857.0
27220,819.0
27240,768.0
27260,720.0
27280,688.0
27300,655.0
27320,622.0
27340,597.0
27360,576.0
27380,562.0
27400,555.0
27420,544.0
27440,543.0
27460,542.0
27480,544.0
27500,555.0
27520,564.0
27540,575.0
27560,587.0
27580,607.0
27600,624.0
27620,637.0
27640,653.0
27660,663.0
27680,683.0
27700,695.0
27720,709.0
27740,726.0
27760,739.0
27780,752.0
27800,765.0
27820,779.0
27840,786.0
27860,804.0
27880,815.0
27900,823.0
27920,827.0
27940,837.0
27960,848.0
27980,851.0
28000,859.0
28020,873.0
28040,880.0
28060,885.0
28080,895.0
28100,899.0
28120,909.0
28140,915.0
28160,927.0
28180,937.0
28200,953.0
28220,961.0
28240,980.0
28260,998.0
28280,112.0
28300,152.0
28320,168.0
28340,146.0
28360,145.0
28380,168.0
28400,175.0
28420,155.0
28440,168.0
28460,219.0
28480,221.0
28500,226.0
28520,230.0
28540,251.0
28560,253.0
28580,254.0
28600,231.0
28620,231.0
28640,249.0
28660,248.0
28680,227.0
28700,228.0
28720,206.0
28740,207.0
28760,235.0
28780,235.0
28800,404.0
28820,988.0
28840,953.0
28860,927.0
28880,903.0
28900,889.0
28920,873.0
28940,862.0
28960,850.0
28980,847.0
29000,834.0
29020,832.0
29040,829.0
29060,825.0
29080,827.0
29100,827.0
29120,830.0
29140,833.0
29160,841.0
29180,848.0
29200,853.0
29220,869.0
29240,880.0
29260,896.0
29280,911.0
29300,930.0
29320,946.0
29340,970.0
29360,997.0
29380,196.0
29400,198.0
29420,217.0
29440,217.0
29460,243.0
29480,264.0
29500,262.0
29520,261.0
29540,209.0
29560,211.0
29580,236.0
29600,238.0
29620,240.0
29640,241.0
29660,248.0
29680,229.0
29700,227.0
29720,239.0
29740,238.0
29760,231.0
29780,232.0
29800,398.0
29820,228.0
29840,226.0
29860,225.0
29880,243.0
29900,246.0
29920,226.0
29940,227.0
29960,229.0
29980,232.0
30000,232.0
30020,208.0
30040,210.0
30060,211.0
30080,211.0
30100,205.0
30120,208.0
30140,209.0
30160,193.0
30180,401.0
30200,401.0
30220,265.0
30240,903.0
30260,896.0
30280,892.0
30300,887.0
30320,880.0
30340,846.0
30360,112.0
30380,116.0
30400,146.0
30420,145.0
30440,423.0
30460,206.0
30480,206.0
30500,222.0
30520,243.0
30540,241.0
30560,245.0
30580,244.0
30600,227.0
30620,224.0
30640,208.0
30660,219.0
30680,184.0
30700,184.0
30720,196.0
30740,200.0
30760,203.0
30780,217.0
30800,222.0
30820,224.0
30840,222.0
30860,220.0
30880,224.0
30900,225.0
30920,217.0
30940,218.0
30960,219.0
30980,200.0
31000,199.0
31020,234.0
31040,212.0
31060,185.0
31080,203.0
31100,883.0
31120,167.0
31140,185.0
31160,163.0
31180,167.0
31200,169.0
31220,158.0
31240,148.0
31260,151.0
31280,153.0
31300,155.0
31320,140.0
31340,139.0
31360,139.0
31380,169.0
31400,169.0
31420,172.0
31440,173.0
31460,163.0
31480,166.0
31500,743.0
31520,160.0
31540,158.0
31560,155.0
31580,317.0
31600,334.0
31620,379.0
31640,372.0
31660,359.0
31680,101.0
31700,299.0
31720,179.0
31740,169.0
31760,307.0
31780,304.0
31800,289.0
31820,282.0
31840,281.0
31860,279.0
31880,277.0
31900,279.0
31920,282.0
31940,285.0
31960,396.0
31980,671.0
32000,672.0
32020,673.0
32040,673.0
32060,675.0
32080,682.0
32100,678.0
32120,683.0
32140,688.0
32160,690.0
32180,699.0
32200,703.0
32220,709.0
32240,720.0
32260,735.0
32280,739.0
32300,746.0
32320,933.0
32340,768.0
32360,778.0
32380,979.0
32400,799.0
32420,813.0
32440,843.0
32460,855.0
32480,877.0
32500,912.0
32520,912.0
32540,944.0
32560,959.0
32580,973.0
32600,979.0
32620,995.0
32640,990.0
32660,998.0
32680,997.0
32700,991.0
32720,990.0
32740,976.0
32760,972.0
32780,960.0
32800,945.0
32820,912.0
32840,890.0
32860,931.0
32880,835.0
32900,817.0
32920,784.0
32940,783.0
32960,765.0
32980,752.0
33000,739.0
33020,728.0
33040,725.0
33060,719.0
33080,922.0
33100,717.0
33120,719.0
33140,726.0
33160,721.0
33180,856.0
33200,742.0
33220,761.0
33240,797.0
33260,731.0
33280,739.0
33300,750.0
33320,752.0
33340,848.0
33360,771.0
33380,902.0
33400,798.0
33420,805.0
33440,816.0
33460,829.0
33480,843.0
33500,858.0
33520,863.0
33540,886.0
33560,896.0
33580,907.0
33600,911.0
33620,918.0
33640,914.0
33660,915.0
33680,912.0
33700,912.0
33720,901.0
33740,887.0
33760,880.0
33780,874.0
33800,854.0
33820,993.0
33840,838.0
33860,821.0
33880,813.0
33900,795.0
33920,855.0
33940,777.0
33960,767.0
33980,758.0
34000,749.0
34020,745.0
34040,740.0
34060,727.0
34080,880.0
34100,721.0
34120,722.0
34140,729.0
34160,721.0
34180,933.0
34200,732.0
34220,735.0
34240,752.0
34260,960.0
34280,774.0
34300,911.0
34320,785.0
34340,812.0
34360,827.0
34380,841.0
34400,858.0
34420,889.0
34440,912.0
34460,914.0
34480,923.0
34500,896.0
34520,816.0
34540,779.0
34560,784.0
34580,810.0
34600,801.0
34620,815.0
34640,829.0
34660,833.0
34680,847.0
34700,867.0
34720,874.0
34740,887.0
34760,901.0
34780,911.0
34800,923.0
34820,943.0
34840,945.0
34860,959.0
34880,975.0
34900,976.0
34920,986.0
34940,998.0
34960,995.0
34980,989.0
35000,975.0
35020,963.0
35040,944.0
35060,919.0
35080,907.0
35100,899.0
35120,881.0
35140,849.0
35160,834.0
35180,827.0
35200,821.0
35220,814.0
35240,797.0
35260,806.0
35280,807.0
35300,816.0
35320,825.0
35340,830.0
35360,834.0
35380,849.0
35400,877.0
35420,891.0
35440,909.0
35460,929.0
35480,950.0
35500,990.0
35520,995.0
35540,109.0
35560,85.0
35580,913.0
35600,862.0
35620,803.0
35640,727.0
35660,666.0
35680,592.0
35700,544.0
35720,491.0
35740,448.0
35760,400.0
35780,364.0
35800,336.0
35820,300.0
35840,275.0
35860,257.0
35880,232.0
35900,218.0
35920,209.0
35940,211.0
35960,222.0
35980,244.0
36000,253.0
36020,279.0
36040,307.0
36060,325.0
36080,346.0
36100,368.0
36120,400.0
36140,436.0
36160,460.0
36180,487.0
36200,511.0
36220,551.0
36240,573.0
36260,594.0
36280,629.0
36300,651.0
36320,678.0
36340,688.0
36360,704.0
36380,725.0
36400,816.0
36420,933.0
36440,949.0
36460,965.0
36480,976.0
36500,987.0
36520,209.0
36540,212.0
36560,214.0
36580,233.0
36600,182.0
36620,184.0
36640,171.0
36660,171.0
36680,228.0
36700,225.0
36720,227.0
36740,210.0
36760,209.0
36780,208.0
36800,242.0
36820,243.0
36840,244.0
36860,244.0
36880,226.0
36900,225.0
36920,212.0
36940,203.0
36960,194.0
36980,217.0
37000,189.0
37020,135.0
37040,130.0
37060,130.0
37080,175.0
37100,333.0
37120,322.0
37140,939.0
37160,884.0
37180,995.0
37200,754.0
37220,676.0
37240,640.0
37260,580.0
37280,511.0
37300,430.0
37320,383.0
37340,330.0
37360,269.0
37380,247.0
37400,209.0
37420,177.0
37440,121.0
37460,97.0
37480,90.0
37500,93.0
37520,58.0
37540,93.0
37560,94.0
37580,99.0
37600,93.0
37620,94.0
37640,95.0
37660,93.0
37680,93.0
37700,95.0
37720,110.0
37740,257.0
37760,309.0
37780,336.0
37800,365.0
37820,390.0
37840,415.0
37860,447.0
37880,474.0
37900,497.0
37920,530.0
37940,549.0
37960,566.0
37980,580.0
38000,589.0
38020,602.0
38040,611.0
38060,615.0
38080,615.0
38100,612.0
38120,609.0
38140,605.0
38160,601.0
38180,592.0
38200,589.0
38220,585.0
38240,582.0
38260,581.0
38280,585.0
38300,587.0
38320,591.0
38340,592.0
38360,599.0
38380,613.0
38400,608.0
38420,627.0
38440,639.0
38460,652.0
38480,663.0
38500,677.0
38520,698.0
38540,714.0
38560,735.0
38580,752.0
38600,775.0
38620,792.0
38640,814.0
38660,831.0
38680,846.0
38700,874.0
38720,879.0
38740,885.0
38760,899.0
38780,912.0
38800,912.0
38820,919.0
38840,923.0
38860,925.0
38880,923.0
38900,922.0
38920,917.0
38940,915.0
38960,912.0
38980,909.0
39000,902.0
39020,887.0
39040,887.0
39060,882.0
39080,879.0
39100,874.0
39120,871.0
39140,864.0
39160,865.0
39180,865.0
39200,865.0
39220,877.0
39240,888.0
39260,161.0
39280,161.0
39300,575.0
39320,214.0
39340,212.0
39360,230.0
39380,243.0
39400,246.0
39420,246.0
39440,448.0
39460,215.0
39480,216.0
39500,242.0
39520,243.0
39540,224.0
39560,222.0
39580,227.0
39600,224.0
39620,233.0
39640,238.0
39660,237.0
39680,219.0
39700,218.0
39720,237.0
39740,234.0
39760,208.0
39780,213.0
39800,193.0
39820,194.0
39840,14.0
39860,94.0
39880,92.0
39900,94.0
39920,94.0
39940,93.0
39960,93.0
39980,94.0
40000,80.0
40020,94.0
40040,91.0
40060,95.0
40080,95.0
40100,95.0
40120,95.0
40140,94.0
40160,94.0
40180,93.0
40200,98.0
40220,112.0
40240,125.0
40260,141.0
40280,160.0
40300,176.0
40320,194.0
40340,215.0
40360,246.0
40380,275.0
40400,299.0
40420,323.0
40440,367.0
40460,443.0
40480,464.0
40500,485.0
40520,510.0
40540,554.0
40560,592.0
40580,605.0
40600,620.0
40620,635.0
40640,651.0
40660,659.0
40680,672.0
40700,675.0
40720,685.0
40740,688.0
40760,691.0
40780,694.0
40800,694.0
40820,698.0
40840,695.0
40860,701.0
40880,698.0
40900,697.0
40920,698.0
40940,697.0
40960,698.0
40980,697.0
41000,699.0
41020,702.0
41040,704.0
41060,705.0
41080,709.0
41100,718.0
41120,722.0
41140,733.0
41160,744.0
41180,747.0
41200,752.0
41220,758.0
41240,768.0
41260,778.0
41280,789.0
41300,810.0
41320,815.0
41340,829.0
41360,839.0
41380,845.0
41400,858.0
41420,878.0
41440,887.0
41460,906.0
41480,912.0
41500,919.0
41520,946.0
41540,961.0
41560,970.0
41580,977.0
41600,989.0
41620,995.0
41640,215.0
41660,220.0
41680,175.0
41700,190.0
41720,182.0
41740,200.0
41760,200.0
41780,200.0
41800,218.0
41820,219.0
41840,221.0
41860,234.0
41880,235.0
41900,239.0
41920,239.0
41940,218.0
41960,218.0
41980,166.0
42000,186.0
42020,168.0
42040,180.0
42060,181.0
42080,197.0
42100,197.0
42120,197.0
42140,220.0
42160,220.0
42180,219.0
42200,208.0
42220,222.0
42240,225.0
42260,848.0
42280,786.0
42300,750.0
42320,694.0
42340,668.0
42360,624.0
42380,593.0
42400,576.0
42420,547.0
42440,511.0
42460,499.0
42480,496.0
42500,471.0
42520,459.0
42540,449.0
42560,441.0
42580,437.0
42600,434.0
42620,432.0
42640,432.0
42660,433.0
42680,439.0
42700,441.0
42720,447.0
42740,450.0
42760,458.0
42780,464.0
42800,467.0
42820,476.0
42840,485.0
42860,495.0
42880,497.0
42900,506.0
42920,511.0
42940,528.0
42960,531.0
42980,539.0
43000,548.0
43020,553.0
43040,560.0
43060,564.0
43080,573.0
43100,582.0
43120,585.0
43140,592.0
43160,605.0
43180,613.0
43200,624.0
43220,634.0
43240,643.0
43260,656.0
43280,667.0
43300,688.0
43320,693.0
43340,709.0
43360,720.0
43380,737.0
43400,752.0
43420,770.0
43440,785.0
43460,806.0
43480,817.0
43500,840.0
43520,860.0
43540,874.0
43560,894.0
43580,915.0
43600,933.0
43620,950.0
43640,971.0
43660,993.0
43680,220.0
43700,223.0
43720,219.0
43740,197.0
43760,196.0
43780,228.0
43800,230.0
43820,219.0
43840,227.0
43860,228.0
43880,230.0
43900,223.0
43920,224.0
43940,225.0
43960,210.0
43980,207.0
44000,195.0
44020,197.0
44040,211.0
44060,212.0
44080,213.0
44100,222.0
44120,220.0
44140,944.0
44160,839.0
44180,748.0
44200,679.0
44220,624.0
44240,577.0
44260,535.0
44280,497.0
44300,480.0
44320,465.0
44340,464.0
44360,463.0
44380,624.0
44400,933.0
44420,946.0
44440,960.0
44460,973.0
44480,985.0
44500,999.0
44520,236.0
44540,194.0
44560,194.0
44580,192.0
44600,194.0
44620,184.0
44640,183.0
44660,182.0
44680,807.0
44700,178.0
44720,177.0
44740,179.0
44760,189.0
44780,183.0
44800,162.0
44820,144.0
44840,145.0
44860,151.0
44880,150.0
44900,999.0
44920,919.0
44940,869.0
44960,819.0
44980,754.0
45000,705.0
45020,656.0
45040,606.0
45060,566.0
45080,528.0
45100,498.0
45120,467.0
45140,445.0
45160,426.0
45180,403.0
45200,387.0
45220,377.0
45240,367.0
45260,363.0
45280,363.0
45300,366.0
45320,371.0
45340,362.0
45360,534.0
45380,234.0
45400,233.0
45420,981.0
45440,965.0
45460,946.0
45480,931.0
45500,923.0
45520,915.0
45540,912.0
45560,208.0
45580,211.0
45600,212.0
45620,182.0
45640,153.0
45660,168.0
45680,115.0
45700,111.0
45720,976.0
45740,975.0
45760,104.0
45780,102.0
45800,49.0
45820,134.0
45840,133.0
45860,903.0
45880,898.0
45900,910.0
45920,918.0
45940,935.0
45960,982.0
45980,997.0
46000,117.0
46020,116.0
46040,992.0
46060,976.0
46080,968.0
46100,959.0
46120,953.0
46140,944.0
46160,942.0
46180,938.0
46200,942.0
46220,943.0
46240,944.0
46260,948.0
46280,975.0
46300,982.0
46320,220.0
46340,219.0
46360,217.0
46380,187.0
46400,402.0
46420,402.0
46440,403.0
46460,101.0
46480,963.0
46500,922.0
46520,884.0
46540,845.0
46560,792.0
46580,749.0
46600,727.0
46620,720.0
46640,715.0
46660,695.0
46680,688.0
46700,689.0
46720,692.0
46740,693.0
46760,727.0
46780,708.0
46800,717.0
46820,720.0
46840,725.0
46860,738.0
46880,757.0
46900,761.0
46920,766.0
46940,767.0
46960,771.0
46980,775.0
47000,783.0
47020,785.0
47040,787.0
47060,790.0
47080,790.0
47100,795.0
47120,796.0
47140,798.0
47160,799.0
47180,798.0
47200,807.0
47220,816.0
47240,821.0
47260,181.0
47280,180.0
47300,225.0
47320,227.0
47340,228.0
47360,204.0
47380,206.0
47400,202.0
47420,202.0
47440,225.0
47460,226.0
47480,228.0
47500,230.0
47520,172.0
47540,193.0
47560,929.0
47580,885.0
47600,816.0
47620,763.0
47640,708.0
47660,651.0
47680,606.0
47700,560.0
47720,509.0
47740,469.0
47760,429.0
47780,400.0
47800,369.0
47820,343.0
47840,327.0
47860,311.0
47880,301.0
47900,290.0
47920,281.0
47940,275.0
47960,250.0
47980,285.0
48000,295.0
48020,307.0
48040,316.0
48060,335.0
48080,353.0
48100,374.0
48120,384.0
48140,417.0
48160,435.0
48180,462.0
48200,481.0
48220,529.0
48240,557.0
48260,566.0
48280,869.0
48300,129.0
48320,135.0
48340,197.0
48360,206.0
48380,214.0
48400,203.0
48420,203.0
48440,238.0
48460,236.0
48480,209.0
48500,232.0
48520,249.0
48540,250.0
48560,250.0
48580,211.0
48600,211.0
48620,222.0
48640,222.0
48660,255.0
48680,259.0
48700,642.0
48720,249.0
48740,225.0
48760,223.0
48780,223.0
48800,236.0
48820,216.0
48840,232.0
48860,209.0
48880,206.0
48900,209.0
48920,212.0
48940,210.0
48960,190.0
48980,191.0
49000,217.0
49020,218.0
49040,192.0
49060,237.0
49080,235.0
49100,232.0
49120,404.0
49140,404.0
49160,640.0
49180,640.0
49200,624.0
49220,620.0
49240,615.0
49260,615.0
49280,617.0
49300,624.0
49320,625.0
49340,640.0
49360,650.0
49380,656.0
49400,676.0
49420,698.0
49440,736.0
49460,754.0
49480,779.0
49500,799.0
49520,823.0
49540,848.0
49560,880.0
49580,896.0
49600,919.0
49620,937.0
49640,976.0
49660,150.0
49680,161.0
49700,218.0
49720,217.0
49740,237.0
49760,238.0
49780,412.0
49800,230.0
49820,229.0
49840,233.0
49860,232.0
49880,228.0
49900,186.0
49920,195.0
49940,197.0
49960,22.0
49980,198.0
50000,199.0
50020,218.0
50040,215.0
50060,214.0
50080,208.0
50100,191.0
50120,488.0
50140,137.0
50160,142.0
50180,981.0
50200,880.0
50220,789.0
50240,709.0
50260,610.0
50280,546.0
50300,478.0
50320,389.0
50340,336.0
50360,92.0
50380,381.0
50400,425.0
50420,449.0
50440,470.0
50460,503.0
50480,528.0
50500,552.0
50520,585.0
50540,593.0
50560,618.0
50580,627.0
50600,641.0
50620,656.0
50640,661.0
50660,666.0
50680,677.0
50700,686.0
50720,688.0
50740,693.0
50760,699.0
50780,705.0
50800,707.0
50820,711.0
50840,720.0
50860,720.0
50880,727.0
50900,735.0
50920,741.0
50940,752.0
50960,757.0
50980,768.0
51000,773.0
51020,786.0
51040,795.0
51060,806.0
51080,822.0
51100,835.0
51120,847.0
51140,859.0
51160,874.0
51180,893.0
51200,913.0
51220,935.0
51240,950.0
51260,967.0
51280,983.0
51300,997.0
51320,998.0
51340,994.0
51360,129.0
51380,128.0
51400,173.0
51420,152.0
51440,138.0
51460,935.0
51480,852.0
51500,807.0
51520,753.0
51540,717.0
51560,680.0
51580,649.0
51600,601.0
51620,569.0
51640,541.0
51660,509.0
51680,496.0
51700,474.0
51720,459.0
51740,439.0
51760,415.0
51780,400.0
51800,375.0
51820,363.0
51840,352.0
51860,346.0
51880,341.0
51900,467.0
51920,212.0
51940,216.0
51960,231.0
51980,241.0
52000,470.0
52020,469.0
52040,464.0
52060,455.0
52080,447.0
52100,435.0
52120,420.0
52140,414.0
52160,400.0
52180,389.0
52200,368.0
52220,355.0
52240,339.0
52260,326.0
52280,307.0
52300,279.0
52320,277.0
52340,262.0
52360,247.0
52380,238.0
52400,221.0
52420,211.0
52440,202.0
52460,192.0
52480,186.0
52500,178.0
52520,174.0
52540,170.0
52560,167.0
52580,167.0
52600,168.0
52620,166.0
52640,172.0
52660,176.0
52680,179.0
52700,185.0
52720,192.0
52740,203.0
52760,212.0
52780,223.0
52800,234.0
52820,242.0
52840,254.0
52860,263.0
52880,275.0
52900,287.0
52920,299.0
52940,304.0
52960,314.0
52980,322.0
53000,326.0
53020,333.0
53040,336.0
53060,336.0
53080,335.0
53100,326.0
53120,313.0
53140,294.0
53160,272.0
53180,249.0
53200,226.0
53220,206.0
53240,187.0
53260,160.0
53280,144.0
53300,124.0
53320,108.0
53340,96.0
53360,96.0
53380,95.0
53400,94.0
53420,95.0
53440,94.0
53460,95.0
53480,94.0
53500,94.0
53520,95.0
53540,95.0
53560,96.0
53580,96.0
53600,93.0
53620,95.0
53640,94.0
53660,93.0
53680,92.0
53700,94.0
53720,94.0
53740,95.0
53760,94.0
53780,95.0
53800,95.0
53820,93.0
53840,77.0
53860,95.0
53880,93.0
53900,94.0
53920,94.0
53940,95.0
53960,95.0
53980,95.0
54000,92.0
54020,94.0
54040,94.0
54060,95.0
54080,95.0
54100,93.0
54120,94.0
54140,93.0
54160,94.0
54180,95.0
54200,94.0
54220,95.0
54240,94.0
54260,93.0
54280,95.0
54300,94.0
54320,93.0
54340,95.0
54360,95.0
54380,93.0
54400,94.0
54420,94.0
54440,94.0
54460,95.0
54480,95.0
54500,94.0
54520,94.0
54540,112.0
54560,94.0
54580,95.0
54600,92.0
54620,95.0
54640,93.0
54660,91.0
54680,93.0
54700,95.0
54720,95.0
54740,95.0
54760,93.0
54780,93.0
54800,95.0
54820,95.0
54840,93.0
54860,95.0
54880,95.0
54900,94.0
54920,93.0
54940,94.0
54960,178.0
54980,176.0
55000,173.0
55020,165.0
55040,159.0
55060,151.0
55080,145.0
55100,143.0
55120,133.0
55140,125.0
55160,123.0
55180,118.0
55200,112.0
55220,109.0
55240,106.0
55260,101.0
55280,96.0
55300,97.0
55320,96.0
55340,96.0
55360,96.0
55380,95.0
55400,95.0
55420,99.0
55440,108.0
55460,133.0
55480,141.0
55500,148.0
55520,160.0
55540,171.0
55560,189.0
55580,208.0
55600,233.0
55620,257.0
55640,277.0
55660,301.0
55680,317.0
55700,327.0
55720,337.0
55740,343.0
55760,347.0
55780,346.0
55800,340.0
55820,336.0
55840,326.0
55860,320.0
55880,308.0
55900,298.0
55920,279.0
55940,270.0
55960,257.0
55980,246.0
56000,237.0
56020,224.0
56040,212.0
56060,207.0
56080,198.0
56100,193.0
56120,190.0
56140,187.0
56160,187.0
56180,188.0
56200,192.0
56220,201.0
56240,209.0
56260,225.0
56280,240.0
56300,256.0
56320,277.0
56340,298.0
56360,315.0
56380,335.0
56400,361.0
56420,382.0
56440,400.0
56460,410.0
56480,458.0
56500,320.0
56520,330.0
56540,333.0
56560,338.0
56580,349.0
56600,357.0
56620,368.0
56640,379.0
56660,390.0
56680,401.0
56700,413.0
56720,428.0
56740,445.0
56760,464.0
56780,473.0
56800,487.0
56820,504.0
56840,519.0
56860,535.0
56880,555.0
56900,562.0
56920,571.0
56940,582.0
56960,592.0
56980,603.0
57000,610.0
57020,615.0
57040,620.0
57060,623.0
57080,623.0
57100,624.0
57120,623.0
57140,617.0
57160,613.0
57180,605.0
57200,595.0
57220,593.0
57240,585.0
57260,575.0
57280,566.0
57300,559.0
57320,545.0
57340,539.0
57360,528.0
57380,508.0
57400,497.0
57420,491.0
57440,473.0
57460,473.0
57480,464.0
57500,461.0
57520,459.0
57540,450.0
57560,448.0
57580,449.0
57600,448.0
57620,445.0
57640,446.0
57660,443.0
57680,443.0
57700,447.0
57720,448.0
57740,449.0
57760,450.0
57780,459.0
57800,464.0
57820,465.0
57840,478.0
57860,482.0
57880,492.0
57900,498.0
57920,507.0
57940,524.0
57960,528.0
57980,540.0
58000,547.0
58020,558.0
58040,562.0
58060,571.0
58080,577.0
58100,583.0
58120,590.0
58140,592.0
58160,597.0
58180,601.0
58200,606.0
58220,605.0
58240,609.0
58260,610.0
58280,613.0
58300,615.0
58320,614.0
58340,621.0
58360,622.0
58380,624.0
58400,625.0
58420,633.0
58440,641.0
58460,643.0
58480,659.0
58500,674.0
58520,685.0
58540,699.0
58560,724.0
58580,739.0
58600,764.0
58620,788.0
58640,848.0
58660,882.0
58680,966.0
58700,997.0
58720,911.0
58740,728.0
58760,539.0
58780,384.0
58800,273.0
58820,167.0
58840,94.0
58860,284.0
58880,625.0
58900,859.0
58920,670.0
58940,848.0
58960,717.0
58980,831.0
59000,753.0
59020,875.0
59040,784.0
59060,795.0
59080,804.0
59100,811.0
59120,814.0
59140,813.0
59160,823.0
59180,803.0
59200,980.0
59220,795.0
59240,784.0
59260,782.0
59280,763.0
59300,928.0
59320,735.0
59340,791.0
59360,707.0
59380,833.0
59400,686.0
59420,704.0
59440,663.0
59460,655.0
59480,651.0
59500,639.0
59520,682.0
59540,630.0
59560,705.0
59580,630.0
59600,635.0
59620,641.0
59640,641.0
59660,850.0
59680,657.0
59700,665.0
59720,688.0
59740,695.0
59760,846.0
59780,721.0
59800,733.0
59820,939.0
59840,765.0
59860,783.0
59880,815.0
59900,820.0
59920,841.0
59940,848.0
59960,859.0
59980,878.0
60000,880.0
60020,983.0
60040,897.0
60060,901.0
60080,912.0
60100,911.0
60120,912.0
60140,912.0
60160,907.0
60180,903.0
60200,891.0
60220,886.0
60240,915.0
60260,778.0
60280,803.0
60300,816.0
60320,830.0
60340,846.0
60360,864.0
60380,874.0
60400,886.0
60420,896.0
60440,910.0
60460,923.0
60480,938.0
60500,944.0
60520,955.0
60540,962.0
60560,975.0
60580,978.0
60600,981.0
60620,989.0
60640,991.0
60660,993.0
60680,991.0
60700,990.0
60720,987.0
60740,985.0
60760,978.0
60780,977.0
60800,973.0
60820,995.0
60840,959.0
60860,955.0
60880,945.0
60900,941.0
60920,933.0
60940,925.0
60960,919.0
60980,912.0
61000,910.0
61020,901.0
61040,893.0
61060,886.0
61080,883.0
61100,880.0
61120,880.0
61140,879.0
61160,879.0
61180,877.0
61200,879.0
61220,880.0
61240,879.0
61260,879.0
61280,880.0
61300,883.0
61320,887.0
61340,893.0
61360,896.0
61380,899.0
61400,907.0
61420,918.0
61440,927.0
61460,940.0
61480,970.0
61500,106.0
61520,135.0
61540,140.0
61560,534.0
61580,204.0
61600,205.0
61620,194.0
61640,194.0
61660,236.0
61680,237.0
61700,237.0
61720,232.0
61740,219.0
61760,219.0
61780,217.0
61800,211.0
61820,211.0
61840,89.0
61860,188.0
61880,185.0
61900,839.0
61920,183.0
61940,172.0
61960,176.0
61980,194.0
62000,192.0
62020,190.0
62040,188.0
62060,170.0
62080,172.0
62100,200.0
62120,197.0
62140,907.0
62160,222.0
62180,239.0
62200,216.0
62220,209.0
62240,209.0
62260,258.0
62280,257.0
62300,227.0
62320,225.0
62340,228.0
62360,246.0
62380,221.0
62400,395.0
62420,403.0
62440,395.0
62460,409.0
62480,379.0
62500,639.0
62520,831.0
62540,148.0
62560,139.0
62580,139.0
62600,202.0
62620,206.0
62640,211.0
62660,219.0
62680,218.0
62700,271.0
62720,273.0
62740,313.0
62760,365.0
62780,328.0
62800,324.0
62820,292.0
62840,265.0
62860,264.0
62880,258.0
62900,259.0
62920,224.0
62940,222.0
62960,220.0
62980,225.0
63000,222.0
63020,220.0
63040,217.0
63060,214.0
63080,250.0
63100,230.0
63120,965.0
63140,838.0
63160,955.0
63180,718.0
63200,656.0
63220,779.0
63240,597.0
63260,619.0
63280,627.0
63300,643.0
63320,653.0
63340,671.0
63360,688.0
63380,701.0
63400,708.0
63420,717.0
63440,741.0
63460,756.0
63480,783.0
63500,800.0
63520,812.0
63540,818.0
63560,827.0
63580,834.0
63600,850.0
63620,859.0
63640,869.0
63660,885.0
63680,902.0
63700,914.0
63720,922.0
63740,944.0
63760,136.0
63780,135.0
63800,153.0
63820,157.0
63840,164.0
63860,169.0
63880,212.0
63900,209.0
63920,225.0
63940,228.0
63960,231.0
63980,329.0
64000,217.0
64020,215.0
64040,214.0
64060,191.0
64080,192.0
64100,179.0
64120,179.0
64140,178.0
64160,162.0
64180,163.0
64200,163.0
64220,180.0
64240,186.0
64260,188.0
64280,190.0
64300,196.0
64320,212.0
64340,213.0
64360,211.0
64380,207.0
64400,230.0
64420,231.0
64440,232.0
64460,216.0
64480,216.0
64500,215.0
64520,227.0
64540,238.0
64560,473.0
64580,222.0
64600,237.0
64620,230.0
64640,881.0
64660,859.0
64680,848.0
64700,844.0
64720,841.0
64740,842.0
64760,841.0
64780,858.0
64800,868.0
64820,883.0
64840,906.0
64860,922.0
64880,939.0
64900,958.0
64920,980.0
64940,997.0
64960,228.0
64980,226.0
65000,223.0
65020,976.0
65040,939.0
65060,910.0
65080,878.0
65100,816.0
65120,992.0
65140,779.0
65160,752.0
65180,747.0
65200,720.0
65220,912.0
65240,688.0
65260,682.0
65280,673.0
65300,657.0
65320,849.0
65340,647.0
65360,649.0
65380,645.0
65400,662.0
65420,656.0
65440,847.0
65460,667.0
65480,673.0
65500,685.0
65520,681.0
65540,707.0
65560,685.0
65580,811.0
65600,688.0
65620,679.0
65640,880.0
65660,673.0
65680,665.0
65700,827.0
65720,653.0
65740,642.0
65760,799.0
65780,625.0
65800,607.0
65820,794.0
65840,564.0
65860,557.0
65880,560.0
65900,525.0
65920,362.0
65940,290.0
65960,314.0
65980,304.0
66000,313.0
66020,323.0
66040,325.0
66060,405.0
66080,336.0
66100,336.0
66120,547.0
66140,337.0
66160,497.0
66180,336.0
66200,333.0
66220,333.0
66240,318.0
66260,310.0
66280,305.0
66300,304.0
66320,275.0
66340,266.0
66360,253.0
66380,236.0
66400,220.0
66420,207.0
66440,192.0
66460,176.0
66480,167.0
66500,151.0
66520,135.0
66540,126.0
66560,113.0
66580,109.0
66600,97.0
66620,95.0
66640,95.0
66660,94.0
66680,94.0
66700,94.0
66720,93.0
66740,93.0
66760,93.0
66780,94.0
66800,96.0
66820,96.0
66840,99.0
66860,109.0
66880,116.0
66900,128.0
66920,141.0
66940,151.0
66960,169.0
66980,183.0
67000,197.0
67020,210.0
67040,227.0
67060,240.0
67080,262.0
67100,273.0
67120,283.0
67140,300.0
67160,306.0
67180,314.0
67200,320.0
67220,326.0
67240,329.0
67260,331.0
67280,330.0
67300,325.0
67320,322.0
67340,320.0
67360,310.0
67380,303.0
67400,292.0
67420,283.0
67440,272.0
67460,259.0
67480,160.0
67500,260.0
67520,279.0
67540,295.0
67560,304.0
67580,320.0
67600,333.0
67620,345.0
67640,353.0
67660,363.0
67680,371.0
67700,381.0
67720,385.0
67740,382.0
67760,376.0
67780,368.0
67800,357.0
67820,339.0
67840,325.0
67860,304.0
67880,292.0
67900,277.0
67920,271.0
67940,247.0
67960,237.0
67980,227.0
68000,217.0
68020,212.0
68040,208.0
68060,208.0
68080,208.0
68100,208.0
68120,214.0
68140,215.0
68160,227.0
68180,239.0
68200,247.0
68220,262.0
68240,274.0
68260,293.0
68280,304.0
68300,322.0
68320,337.0
68340,352.0
68360,368.0
68380,384.0
68400,399.0
68420,413.0
68440,431.0
68460,435.0
68480,448.0
68500,450.0
68520,459.0
68540,463.0
68560,464.0
68580,464.0
68600,458.0
68620,449.0
68640,441.0
68660,432.0
68680,419.0
68700,402.0
68720,399.0
68740,385.0
68760,372.0
68780,364.0
68800,348.0
68820,333.0
68840,324.0
68860,315.0
68880,304.0
68900,295.0
68920,281.0
68940,277.0
68960,275.0
68980,272.0
69000,285.0
69020,289.0
69040,302.0
69060,320.0
69080,330.0
69100,459.0
69120,401.0
69140,374.0
69160,351.0
69180,352.0
69200,325.0
69220,321.0
69240,315.0
69260,317.0
69280,320.0
69300,323.0
69320,331.0
69340,337.0
69360,346.0
69380,355.0
69400,366.0
69420,374.0
69440,393.0
69460,402.0
69480,414.0
69500,432.0
69520,443.0
69540,461.0
69560,476.0
69580,491.0
69600,509.0
69620,525.0
69640,534.0
69660,547.0
69680,560.0
69700,565.0
69720,578.0
69740,581.0
69760,585.0
69780,585.0
69800,583.0
69820,580.0
69840,576.0
69860,571.0
69880,561.0
69900,553.0
69920,545.0
69940,534.0
69960,525.0
69980,506.0
70000,496.0
70020,485.0
70040,471.0
70060,460.0
70080,451.0
70100,441.0
70120,432.0
70140,421.0
70160,414.0
70180,409.0
70200,405.0
70220,399.0
70240,398.0
70260,399.0
70280,397.0
70300,398.0
70320,400.0
70340,403.0
70360,413.0
70380,421.0
70400,429.0
70420,436.0
70440,448.0
70460,461.0
70480,474.0
70500,487.0
70520,497.0
70540,511.0
70560,533.0
70580,547.0
70600,562.0
70620,592.0
70640,604.0
70660,614.0
70680,670.0
70700,551.0
70720,553.0
70740,559.0
70760,574.0
70780,595.0
70800,624.0
70820,653.0
70840,693.0
70860,727.0
70880,765.0
70900,782.0
70920,794.0
70940,810.0
70960,822.0
70980,837.0
71000,848.0
71020,854.0
71040,866.0
71060,871.0
71080,879.0
71100,880.0
71120,880.0
71140,880.0
71160,877.0
71180,875.0
71200,865.0
71220,859.0
71240,848.0
71260,847.0
71280,834.0
71300,819.0
71320,813.0
71340,800.0
71360,789.0
71380,781.0
71400,771.0
71420,763.0
71440,754.0
71460,752.0
71480,727.0
71500,741.0
71520,738.0
71540,735.0
71560,737.0
71580,738.0
71600,738.0
71620,745.0
71640,750.0
71660,755.0
71680,762.0
71700,778.0
71720,783.0
71740,795.0
71760,815.0
71780,828.0
71800,835.0
71820,847.0
71840,866.0
71860,880.0
71880,897.0
71900,912.0
71920,936.0
71940,945.0
71960,970.0
71980,981.0
72000,999.0
72020,611.0
72040,589.0
72060,573.0
72080,759.0
72100,559.0
72120,591.0
72140,560.0
72160,634.0
72180,563.0
72200,576.0
72220,597.0
72240,597.0
72260,611.0
72280,625.0
72300,640.0
72320,859.0
72340,670.0
72360,718.0
72380,690.0
72400,779.0
72420,706.0
72440,713.0
72460,720.0
72480,720.0
72500,928.0
72520,720.0
72540,933.0
72560,720.0
72580,729.0
72600,716.0
72620,711.0
72640,925.0
72660,718.0
72680,722.0
72700,913.0
72720,743.0
72740,765.0
72760,780.0
72780,811.0
72800,821.0
72820,847.0
72840,873.0
72860,901.0
72880,972.0
72900,231.0
72920,208.0
72940,205.0
72960,210.0
72980,211.0
73000,196.0
73020,195.0
73040,193.0
73060,215.0
73080,214.0
73100,195.0
73120,196.0
73140,201.0
73160,201.0
73180,203.0
73200,152.0
73220,122.0
73240,979.0
73260,944.0
73280,925.0
73300,890.0
73320,823.0
73340,784.0
73360,717.0
73380,673.0
73400,643.0
73420,614.0
73440,607.0
73460,927.0
73480,943.0
73500,944.0
73520,949.0
73540,953.0
73560,960.0
73580,966.0
73600,969.0
73620,969.0
73640,976.0
73660,976.0
73680,977.0
73700,982.0
73720,989.0
73740,992.0
73760,994.0
73780,989.0
73800,166.0
73820,180.0
73840,521.0
73860,107.0
73880,232.0
73900,233.0
73920,215.0
73940,214.0
73960,213.0
73980,226.0
74000,228.0
74020,212.0
74040,210.0
74060,222.0
74080,224.0
74100,226.0
74120,227.0
74140,231.0
74160,217.0
74180,189.0
74200,185.0
74220,186.0
74240,188.0
74260,744.0
74280,182.0
74300,185.0
74320,197.0
74340,197.0
74360,198.0
74380,226.0
74400,227.0
74420,227.0
74440,207.0
74460,208.0
74480,959.0
74500,890.0
74520,817.0
74540,766.0
74560,720.0
74580,690.0
74600,671.0
74620,757.0
74640,215.0
74660,212.0
74680,210.0
74700,248.0
74720,250.0
74740,994.0
74760,952.0
74780,925.0
74800,901.0
74820,877.0
74840,875.0
74860,851.0
74880,845.0
74900,841.0
74920,843.0
74940,848.0
74960,851.0
74980,865.0
75000,878.0
75020,899.0
75040,912.0
75060,928.0
75080,953.0
75100,206.0
75120,206.0
75140,213.0
75160,215.0
75180,74.0
75200,197.0
75220,198.0
75240,199.0
75260,201.0
75280,201.0
75300,216.0
75320,215.0
75340,214.0
75360,210.0
75380,212.0
75400,194.0
75420,192.0
75440,789.0
75460,185.0
75480,187.0
75500,190.0
75520,172.0
75540,171.0
75560,138.0
75580,998.0
75600,939.0
75620,880.0
75640,827.0
75660,784.0
75680,754.0
75700,707.0
75720,686.0
75740,666.0
75760,649.0
75780,636.0
75800,624.0
75820,624.0
75840,615.0
75860,615.0
75880,612.0
75900,611.0
75920,610.0
75940,610.0
75960,611.0
75980,611.0
76000,611.0
76020,616.0
76040,618.0
76060,617.0
76080,622.0
76100,624.0
76120,626.0
76140,640.0
76160,645.0
76180,656.0
76200,673.0
76220,695.0
76240,721.0
76260,752.0
76280,794.0
76300,825.0
76320,870.0
76340,912.0
76360,960.0
76380,176.0
76400,177.0
76420,179.0
76440,887.0
76460,196.0
76480,195.0
76500,207.0
76520,204.0
76540,202.0
76560,200.0
76580,199.0
76600,207.0
76620,205.0
76640,14.0
76660,116.0
76680,219.0
76700,220.0
76720,987.0
76740,188.0
76760,189.0
76780,191.0
76800,200.0
76820,166.0
76840,169.0
76860,976.0
76880,944.0
76900,915.0
76920,895.0
76940,877.0
76960,851.0
76980,845.0
77000,886.0
77020,193.0
77040,195.0
77060,198.0
77080,976.0
77100,170.0
77120,187.0
77140,206.0
77160,224.0
77180,238.0
77200,256.0
77220,272.0
77240,326.0
77260,377.0
77280,430.0
77300,482.0
77320,549.0
77340,599.0
77360,666.0
77380,719.0
77400,784.0
77420,830.0
77440,898.0
77460,937.0
77480,973.0
77500,999.0
77520,229.0
77540,202.0
77560,200.0
77580,198.0
77600,219.0
77620,217.0
77640,221.0
77660,224.0
77680,236.0
77700,229.0
77720,228.0
77740,295.0
77760,249.0
77780,250.0
77800,251.0
77820,250.0
77840,237.0
77860,237.0
77880,210.0
77900,289.0
77920,266.0
77940,705.0
77960,989.0
77980,855.0
78000,794.0
78020,733.0
78040,700.0
78060,650.0
78080,605.0
78100,581.0
78120,545.0
78140,528.0
78160,511.0
78180,497.0
78200,489.0
78220,487.0
78240,491.0
78260,491.0
78280,496.0
78300,498.0
78320,511.0
78340,528.0
78360,548.0
78380,576.0
78400,602.0
78420,627.0
78440,643.0
78460,671.0
78480,110.0
78500,137.0
78520,182.0
78540,177.0
78560,181.0
78580,184.0
78600,908.0
78620,187.0
78640,185.0
78660,202.0
78680,194.0
78700,191.0
78720,193.0
78740,181.0
78760,194.0
78780,201.0
78800,917.0
78820,904.0
78840,202.0
78860,204.0
78880,13.0
78900,222.0
78920,221.0
78940,188.0
78960,189.0
78980,190.0
79000,733.0
79020,739.0
79040,748.0
79060,758.0
79080,769.0
79100,787.0
79120,817.0
79140,851.0
79160,887.0
79180,943.0
79200,981.0
79220,272.0
79240,273.0
79260,227.0
79280,231.0
79300,235.0
79320,233.0
79340,219.0
79360,201.0
79380,971.0
79400,855.0
79420,972.0
79440,720.0
79460,661.0
79480,593.0
79500,549.0
79520,544.0
79540,423.0
79560,451.0
79580,365.0
79600,330.0
79620,310.0
79640,272.0
79660,458.0
79680,231.0
79700,219.0
79720,225.0
79740,200.0
79760,194.0
79780,192.0
79800,195.0
79820,272.0
79840,205.0
79860,210.0
79880,298.0
79900,249.0
79920,281.0
79940,522.0
79960,336.0
79980,352.0
80000,586.0
80020,400.0
80040,434.0
80060,489.0
80080,720.0
80100,539.0
80120,557.0
80140,785.0
80160,605.0
80180,629.0
80200,845.0
80220,667.0
80240,747.0
80260,796.0
80280,816.0
80300,818.0
80320,835.0
80340,889.0
80360,865.0
80380,880.0
80400,907.0
80420,912.0
80440,933.0
80460,960.0
80480,966.0
80500,978.0
80520,108.0
80540,106.0
80560,100.0
80580,997.0
80600,989.0
80620,982.0
80640,976.0
80660,974.0
80680,970.0
80700,967.0
80720,968.0
80740,971.0
80760,973.0
80780,975.0
80800,976.0
80820,988.0
80840,989.0
80860,997.0
80880,141.0
80900,141.0
80920,172.0
80940,175.0
80960,188.0
80980,193.0
81000,195.0
81020,199.0
81040,214.0
81060,211.0
81080,237.0
81100,240.0
81120,241.0
81140,221.0
81160,218.0
81180,159.0
81200,166.0
81220,253.0
81240,253.0
81260,448.0
81280,913.0
81300,658.0
81320,707.0
81340,752.0
81360,790.0
81380,839.0
81400,882.0
81420,926.0
81440,970.0
81460,275.0
81480,138.0
81500,134.0
81520,641.0
81540,108.0
81560,108.0
81580,168.0
81600,131.0
81620,132.0
81640,149.0
81660,119.0
81680,122.0
81700,138.0
81720,285.0
81740,181.0
81760,179.0
81780,404.0
81800,404.0
81820,403.0
81840,848.0
81860,761.0
81880,798.0
81900,816.0
81920,835.0
81940,857.0
81960,907.0
81980,922.0
82000,936.0
82020,961.0
82040,984.0
82060,122.0
82080,126.0
82100,131.0
82120,208.0
82140,210.0
82160,212.0
82180,226.0
82200,225.0
82220,224.0
82240,193.0
82260,193.0
82280,201.0
82300,203.0
82320,897.0
82340,854.0
82360,176.0
82380,178.0
82400,195.0
82420,170.0
82440,179.0
82460,181.0
82480,850.0
82500,164.0
82520,160.0
82540,158.0
82560,176.0
82580,164.0
82600,974.0
82620,936.0
82640,912.0
82660,875.0
82680,843.0
82700,826.0
82720,794.0
82740,777.0
82760,762.0
82780,743.0
82800,730.0
82820,720.0
82840,717.0
82860,710.0
82880,708.0
82900,706.0
82920,709.0
82940,717.0
82960,720.0
82980,734.0
83000,927.0
83020,245.0
83040,247.0
83060,265.0
83080,265.0
83100,237.0
83120,236.0
83140,234.0
83160,238.0
83180,294.0
83200,153.0
83220,155.0
83240,176.0
83260,174.0
83280,149.0
83300,148.0
83320,148.0
83340,977.0
83360,957.0
83380,929.0
83400,917.0
83420,901.0
83440,882.0
83460,864.0
83480,848.0
83500,846.0
83520,817.0
83540,806.0
83560,803.0
83580,782.0
83600,770.0
83620,772.0
83640,753.0
83660,751.0
83680,750.0
83700,735.0
83720,734.0
83740,741.0
83760,722.0
83780,721.0
83800,721.0
83820,720.0
83840,882.0
83860,727.0
83880,723.0
83900,730.0
83920,751.0
83940,788.0
83960,752.0
83980,749.0
84000,752.0
84020,778.0
84040,759.0
84060,964.0
84080,768.0
84100,967.0
84120,770.0
84140,769.0
84160,789.0
84180,762.0
84200,758.0
84220,749.0
84240,829.0
84260,718.0
84280,699.0
84300,679.0
84320,670.0
84340,672.0
84360,626.0
84380,616.0
84400,590.0
84420,768.0
84440,533.0
84460,496.0
84480,475.0
84500,618.0
84520,449.0
84540,429.0
84560,411.0
84580,397.0
84600,549.0
84620,403.0
84640,375.0
84660,371.0
84680,368.0
84700,579.0
84720,369.0
84740,373.0
84760,384.0
84780,381.0
84800,385.0
84820,607.0
84840,400.0
84860,406.0
84880,528.0
84900,431.0
84920,432.0
84940,448.0
84960,462.0
84980,465.0
85000,476.0
85020,656.0
85040,362.0
85060,295.0
85080,296.0
85100,493.0
85120,304.0
85140,305.0
85160,506.0
85180,321.0
85200,329.0
85220,453.0
85240,347.0
85260,355.0
85280,368.0
85300,384.0
85320,391.0
85340,401.0
85360,425.0
85380,428.0
85400,438.0
85420,477.0
85440,461.0
85460,471.0
85480,496.0
85500,494.0
85520,502.0
85540,709.0
85560,526.0
85580,528.0
85600,718.0
85620,542.0
85640,543.0
85660,681.0
85680,548.0
85700,543.0
85720,569.0
85740,538.0
85760,529.0
85780,701.0
85800,511.0
85820,501.0
85840,503.0
85860,483.0
85880,469.0
85900,461.0
85920,450.0
85940,432.0
85960,424.0
85980,411.0
86000,400.0
86020,393.0
86040,390.0
86060,371.0
86080,363.0
86100,362.0
86120,347.0
86140,341.0
86160,327.0
86180,336.0
86200,323.0
86220,326.0
86240,330.0
86260,349.0
86280,349.0
86300,360.0
86320,379.0
86340,390.0
86360,419.0
86380,426.0
86400,461.0
86420,464.0
86440,478.0
86460,690.0
86480,525.0
86500,672.0
86520,558.0
86540,567.0
86560,582.0
86580,599.0
86600,607.0
86620,621.0
86640,640.0
86660,640.0
86680,651.0
86700,848.0
86720,657.0
86740,663.0
86760,697.0
86780,672.0
86800,672.0
86820,791.0
86840,668.0
86860,663.0
86880,659.0
86900,657.0
86920,646.0
86940,605.0
86960,702.0
86980,496.0
87000,507.0
87020,531.0
87040,530.0
87060,538.0
87080,561.0
87100,558.0
87120,562.0
87140,585.0
87160,576.0
87180,577.0
87200,760.0
87220,589.0
87240,588.0
87260,771.0
87280,605.0
87300,598.0
87320,605.0
87340,608.0
87360,607.0
87380,611.0
87400,617.0
87420,623.0
87440,627.0
87460,638.0
87480,641.0
87500,654.0
87520,665.0
87540,673.0
87560,688.0
87580,706.0
87600,720.0
87620,733.0
87640,754.0
87660,773.0
87680,791.0
87700,816.0
87720,844.0
87740,867.0
87760,897.0
87780,934.0
87800,960.0
87820,176.0
87840,184.0
87860,534.0
87880,455.0
87900,398.0
87920,356.0
87940,315.0
87960,278.0
87980,251.0
88000,207.0
88020,176.0
88040,145.0
88060,119.0
88080,106.0
88100,100.0
88120,95.0
88140,94.0
88160,94.0
88180,93.0
88200,96.0
88220,113.0
88240,141.0
88260,155.0
88280,176.0
88300,190.0
88320,211.0
88340,224.0
88360,238.0
88380,258.0
88400,289.0
88420,315.0
88440,359.0
88460,378.0
88480,403.0
88500,433.0
88520,462.0
88540,490.0
88560,511.0
88580,539.0
88600,560.0
88620,576.0
88640,589.0
88660,597.0
88680,606.0
88700,617.0
88720,624.0
88740,629.0
88760,640.0
88780,645.0
88800,647.0
88820,653.0
88840,656.0
88860,657.0
88880,661.0
88900,669.0
88920,674.0
88940,679.0
88960,690.0
88980,699.0
89000,709.0
89020,722.0
89040,734.0
89060,748.0
89080,768.0
89100,784.0
89120,791.0
89140,814.0
89160,821.0
89180,837.0
89200,870.0
89220,895.0
89240,909.0
89260,924.0
89280,931.0
89300,950.0
89320,970.0
89340,981.0
89360,896.0
89380,922.0
89400,927.0
89420,943.0
89440,971.0
89460,986.0
89480,126.0
89500,127.0
89520,301.0
89540,171.0
89560,173.0
89580,176.0
89600,178.0
89620,239.0
89640,238.0
89660,238.0
89680,279.0
89700,285.0
89720,291.0
89740,268.0
89760,265.0
89780,285.0
89800,298.0
89820,258.0
89840,264.0
89860,255.0
89880,610.0
89900,228.0
89920,230.0
89940,232.0
89960,233.0
89980,218.0
90000,218.0
90020,216.0
90040,216.0
90060,215.0
90080,260.0
90100,258.0
90120,239.0
90140,241.0
90160,265.0
90180,224.0
90200,285.0
90220,243.0
90240,241.0
90260,277.0
90280,278.0
90300,279.0
90320,259.0
90340,260.0
90360,263.0
90380,253.0
90400,255.0
90420,270.0
90440,274.0
90460,275.0
90480,255.0
90500,253.0
90520,248.0
90540,245.0
90560,123.0
90580,124.0
90600,719.0
90620,292.0
90640,292.0
90660,289.0
90680,302.0
90700,305.0
90720,277.0
90740,279.0
90760,864.0
90780,287.0
90800,289.0
90820,271.0
90840,276.0
90860,274.0
90880,251.0
90900,249.0
90920,455.0
90940,263.0
90960,263.0
90980,639.0
91000,267.0
91020,269.0
91040,271.0
91060,752.0
91080,754.0
91100,521.0
91120,253.0
91140,252.0
91160,251.0
91180,37.0
91200,403.0
91220,404.0
91240,247.0
91260,230.0
91280,219.0
91300,173.0
91320,176.0
91340,404.0
91360,404.0
91380,405.0
91400,404.0
91420,404.0
91440,405.0
91460,405.0
91480,405.0
91500,405.0
91520,405.0
91540,398.0
91560,401.0
91580,403.0
91600,409.0
91620,16.0
91640,375.0
91660,409.0
91680,358.0
91700,364.0
91720,401.0
91740,404.0
91760,404.0
91780,346.0
91800,342.0
91820,345.0
91840,291.0
91860,293.0
91880,321.0
91900,892.0
91920,781.0
91940,709.0
91960,669.0
91980,624.0
92000,594.0
92020,653.0
92040,602.0
92060,607.0
92080,629.0
92100,656.0
92120,690.0
92140,728.0
92160,768.0
92180,822.0
92200,873.0
92220,921.0
92240,206.0
92260,213.0
92280,186.0
92300,206.0
92320,208.0
92340,210.0
92360,210.0
92380,208.0
92400,203.0
92420,209.0
92440,195.0
92460,193.0
92480,211.0
92500,213.0
92520,198.0
92540,198.0
92560,207.0
92580,205.0
92600,483.0
92620,122.0
92640,114.0
92660,929.0
92680,817.0
92700,733.0
92720,887.0
92740,653.0
92760,590.0
92780,511.0
92800,464.0
92820,614.0
92840,392.0
92860,537.0
92880,288.0
92900,480.0
92920,267.0
92940,247.0
92960,237.0
92980,233.0
93000,231.0
93020,235.0
93040,241.0
93060,243.0
93080,461.0
93100,265.0
93120,270.0
93140,288.0
93160,303.0
93180,311.0
93200,336.0
93220,336.0
93240,522.0
93260,349.0
93280,352.0
93300,361.0
93320,358.0
93340,363.0
93360,431.0
93380,363.0
93400,364.0
93420,363.0
93440,363.0
93460,362.0
93480,363.0
93500,361.0
93520,368.0
93540,364.0
93560,368.0
93580,371.0
93600,381.0
93620,591.0
93640,397.0
93660,407.0
93680,477.0
93700,417.0
93720,576.0
93740,845.0
93760,835.0
93780,820.0
93800,803.0
93820,787.0
93840,768.0
93860,754.0
93880,742.0
93900,727.0
93920,707.0
93940,883.0
93960,688.0
93980,673.0
94000,871.0
94020,646.0
94040,641.0
94060,631.0
94080,624.0
94100,776.0
94120,621.0
94140,612.0
94160,820.0
94180,617.0
94200,617.0
94220,809.0
94240,625.0
94260,631.0
94280,849.0
94300,648.0
94320,822.0
94340,674.0
94360,678.0
94380,693.0
94400,715.0
94420,722.0
94440,896.0
94460,762.0
94480,831.0
94500,804.0
94520,811.0
94540,874.0
94560,848.0
94580,854.0
94600,874.0
94620,896.0
94640,912.0
94660,921.0
94680,925.0
94700,928.0
94720,935.0
94740,929.0
94760,927.0
94780,922.0
94800,915.0
94820,912.0
94840,898.0
94860,880.0
94880,871.0
94900,851.0
94920,821.0
94940,813.0
94960,800.0
94980,789.0
95000,790.0
95020,785.0
95040,933.0
95060,963.0
95080,960.0
95100,957.0
95120,954.0
95140,953.0
95160,955.0
95180,958.0
95200,959.0
95220,971.0
95240,976.0
95260,993.0
95280,174.0
95300,172.0
95320,170.0
95340,171.0
95360,162.0
95380,163.0
95400,153.0
95420,132.0
95440,132.0
95460,149.0
95480,159.0
95500,108.0
95520,114.0
95540,134.0
95560,124.0
95580,115.0
95600,115.0
95620,116.0
95640,991.0
95660,982.0
95680,975.0
95700,905.0
95720,992.0
95740,988.0
95760,986.0
95780,981.0
95800,985.0
95820,993.0
95840,101.0
95860,104.0
95880,106.0
95900,181.0
95920,994.0
95940,989.0
95960,987.0
95980,987.0
96000,989.0
96020,993.0
96040,999.0
96060,997.0
96080,981.0
96100,976.0
96120,966.0
96140,962.0
96160,958.0
96180,959.0
96200,961.0
96220,959.0
96240,960.0
96260,969.0
96280,977.0
96300,981.0
96320,998.0
96340,991.0
96360,980.0
96380,979.0
96400,976.0
96420,977.0
96440,982.0
96460,986.0
96480,991.0
96500,118.0
96520,115.0
96540,113.0
96560,975.0
96580,843.0
96600,754.0
96620,663.0
96640,560.0
96660,479.0
96680,411.0
96700,332.0
96720,279.0
96740,233.0
96760,291.0
96780,143.0
96800,112.0
96820,94.0
96840,97.0
96860,97.0
96880,94.0
96900,98.0
96920,95.0
96940,384.0
96960,208.0
96980,305.0
97000,251.0
97020,361.0
97040,310.0
97060,327.0
97080,359.0
97100,380.0
97120,406.0
97140,416.0
97160,647.0
97180,445.0
97200,678.0
97220,464.0
97240,469.0
97260,479.0
97280,475.0
97300,639.0
97320,467.0
97340,578.0
97360,458.0
97380,447.0
97400,481.0
97420,426.0
97440,605.0
97460,397.0
97480,384.0
97500,368.0
97520,354.0
97540,431.0
97560,333.0
97580,352.0
97600,319.0
97620,304.0
97640,301.0
97660,301.0
97680,291.0
97700,296.0
97720,290.0
97740,290.0
97760,296.0
97780,302.0
97800,345.0
97820,316.0
97840,541.0
97860,336.0
97880,435.0
97900,369.0
97920,384.0
97940,410.0
97960,448.0
97980,462.0
98000,486.0
98020,646.0
98040,529.0
98060,549.0
98080,667.0
98100,560.0
98120,566.0
98140,560.0
98160,560.0
98180,546.0
98200,530.0
98220,723.0
98240,498.0
98260,490.0
98280,465.0
98300,666.0
98320,433.0
98340,511.0
98360,412.0
98380,407.0
98400,394.0
98420,457.0
98440,629.0
98460,656.0
98480,647.0
98500,642.0
98520,635.0
98540,625.0
98560,613.0
98580,607.0
98600,593.0
98620,596.0
98640,576.0
98660,560.0
98680,553.0
98700,545.0
98720,540.0
98740,529.0
98760,528.0
98780,527.0
98800,528.0
98820,532.0
98840,538.0
98860,550.0
98880,555.0
98900,561.0
98920,579.0
98940,589.0
98960,605.0
98980,629.0
99000,646.0
99020,661.0
99040,689.0
99060,697.0
99080,730.0
99100,759.0
99120,780.0
99140,800.0
99160,819.0
99180,848.0
99200,864.0
99220,880.0
99240,889.0
99260,910.0
99280,912.0
99300,918.0
99320,923.0
99340,925.0
99360,923.0
99380,922.0
99400,917.0
99420,913.0
99440,910.0
99460,896.0
99480,887.0
99500,880.0
99520,867.0
99540,861.0
99560,851.0
99580,843.0
99600,835.0
99620,832.0
99640,826.0
99660,820.0
99680,821.0
99700,821.0
99720,820.0
99740,893.0
99760,187.0
99780,210.0
99800,190.0
99820,206.0
99840,217.0
99860,177.0
99880,177.0
99900,177.0
99920,195.0
99940,193.0
99960,857.0
99980,843.0
100000,836.0
100020,835.0
100040,833.0
100060,834.0
100080,837.0
100100,839.0
100120,843.0
100140,846.0
100160,850.0
100180,855.0
100200,862.0
100220,868.0
100240,878.0
100260,881.0
100280,887.0
100300,895.0
100320,901.0
100340,907.0
100360,911.0
100380,912.0
100400,911.0
100420,912.0
100440,911.0
100460,891.0
100480,903.0
100500,897.0
100520,890.0
100540,882.0
100560,870.0
100580,855.0
100600,847.0
100620,835.0
100640,816.0
100660,802.0
100680,788.0
100700,769.0
100720,751.0
100740,732.0
100760,717.0
100780,689.0
100800,675.0
100820,659.0
100840,640.0
100860,626.0
100880,598.0
100900,590.0
100920,573.0
100940,559.0
100960,532.0
100980,523.0
101000,505.0
101020,491.0
101040,482.0
101060,471.0
101080,464.0
101100,449.0
101120,445.0
101140,441.0
101160,439.0
101180,439.0
101200,438.0
101220,443.0
101240,447.0
101260,448.0
101280,451.0
101300,457.0
101320,461.0
101340,464.0
101360,469.0
101380,472.0
101400,479.0
101420,481.0
101440,481.0
101460,486.0
101480,487.0
101500,490.0
101520,489.0
101540,485.0
101560,483.0
101580,482.0
101600,466.0
101620,466.0
101640,459.0
101660,448.0
101680,430.0
101700,421.0
101720,403.0
101740,395.0
101760,380.0
101780,368.0
101800,357.0
101820,346.0
101840,336.0
101860,333.0
101880,329.0
101900,327.0
101920,326.0
101940,549.0
101960,236.0
101980,150.0
102000,94.0
102020,96.0
102040,118.0
102060,95.0
102080,95.0
102100,95.0
102120,174.0
102140,95.0
102160,94.0
102180,102.0
102200,95.0
102220,308.0
102240,96.0
102260,94.0
102280,96.0
102300,304.0
102320,93.0
102340,96.0
102360,306.0
102380,94.0
102400,96.0
102420,96.0
102440,95.0
102460,95.0
102480,97.0
102500,96.0
102520,297.0
102540,96.0
102560,96.0
102580,112.0
102600,90.0
102620,297.0
102640,94.0
102660,93.0
102680,306.0
102700,93.0
102720,96.0
102740,97.0
102760,93.0
102780,245.0
102800,96.0
102820,95.0
102840,108.0
102860,93.0
102880,246.0
102900,94.0
102920,95.0
102940,95.0
102960,94.0
102980,94.0
103000,101.0
103020,95.0
103040,119.0
103060,94.0
103080,99.0
103100,93.0
103120,98.0
103140,91.0
103160,281.0
103180,93.0
103200,96.0
103220,149.0
103240,93.0
103260,283.0
103280,94.0
103300,94.0
103320,107.0
103340,95.0
103360,224.0
103380,93.0
103400,98.0
103420,94.0
103440,106.0
103460,95.0
103480,309.0
103500,95.0
103520,94.0
103540,308.0
103560,96.0
103580,97.0
103600,94.0
103620,95.0
103640,96.0
103660,93.0
103680,96.0
103700,93.0
103720,99.0
103740,95.0
103760,118.0
103780,93.0
103800,93.0
103820,308.0
103840,94.0
103860,112.0
103880,94.0
103900,95.0
103920,99.0
103940,94.0
103960,96.0
103980,96.0
104000,95.0
104020,93.0
104040,171.0
104060,94.0
104080,78.0
104100,95.0
104120,96.0
104140,96.0
104160,222.0
104180,95.0
104200,307.0
104220,91.0
104240,296.0
104260,96.0
104280,94.0
104300,92.0
104320,91.0
104340,93.0
104360,91.0
104380,95.0
104400,93.0
104420,94.0
104440,91.0
104460,94.0
104480,94.0
104500,66.0
104520,94.0
104540,95.0
104560,94.0
104580,94.0
104600,94.0
104620,92.0
104640,91.0
104660,91.0
104680,93.0
104700,93.0
104720,93.0
104740,96.0
104760,93.0
104780,74.0
104800,93.0
104820,94.0
104840,94.0
104860,93.0
104880,95.0
104900,91.0
104920,92.0
104940,91.0
104960,93.0
104980,92.0
105000,94.0
105020,97.0
105040,94.0
105060,93.0
105080,93.0
105100,93.0
105120,94.0
105140,91.0
105160,91.0
105180,92.0
105200,91.0
105220,95.0
105240,93.0
105260,96.0
105280,92.0
105300,94.0
105320,93.0
105340,94.0
105360,95.0
105380,93.0
105400,92.0
105420,94.0
105440,94.0
105460,93.0
105480,94.0
105500,93.0
105520,91.0
105540,95.0
105560,94.0
105580,94.0
105600,94.0
105620,93.0
105640,91.0
105660,93.0
105680,91.0
105700,94.0
105720,91.0
105740,93.0
105760,94.0
105780,93.0
105800,91.0
105820,94.0
105840,93.0
105860,90.0
105880,95.0
105900,93.0
105920,93.0
105940,93.0
105960,95.0
105980,95.0
106000,91.0
106020,94.0
106040,80.0
106060,93.0
106080,93.0
106100,91.0
106120,93.0
106140,93.0
106160,93.0
106180,93.0
106200,91.0
106220,93.0
106240,93.0
106260,93.0
106280,91.0
106300,93.0
106320,93.0
106340,92.0
106360,92.0
106380,91.0
106400,91.0
106420,94.0
106440,91.0
106460,90.0
106480,94.0
106500,92.0
106520,91.0
106540,95.0
106560,92.0
106580,95.0
106600,93.0
106620,93.0
106640,115.0
106660,93.0
106680,91.0
106700,94.0
106720,93.0
106740,93.0
106760,91.0
106780,91.0
106800,91.0
106820,92.0
106840,93.0
106860,94.0
106880,94.0
106900,92.0
106920,115.0
106940,93.0
106960,94.0
106980,85.0
107000,94.0
107020,71.0
107040,94.0
107060,93.0
107080,93.0
107100,93.0
107120,87.0
107140,93.0
107160,94.0
107180,94.0
107200,93.0
107220,94.0
107240,92.0
107260,93.0
107280,96.0
107300,93.0
107320,94.0
107340,95.0
107360,92.0
107380,94.0
107400,94.0
107420,96.0
107440,95.0
107460,95.0
107480,95.0
107500,619.0
107520,684.0
107540,726.0
107560,786.0
107580,845.0
107600,895.0
107620,959.0
107640,251.0
107660,272.0
107680,268.0
107700,246.0
107720,245.0
107740,244.0
107760,265.0
107780,267.0
107800,267.0
107820,273.0
107840,263.0
107860,246.0
107880,248.0
107900,249.0
107920,255.0
107940,274.0
107960,276.0
107980,275.0
108000,274.0
108020,285.0
108040,283.0
108060,307.0
108080,311.0
108100,314.0
108120,312.0
108140,315.0
108160,325.0
108180,321.0
108200,350.0
108220,356.0
108240,399.0
108260,399.0
108280,398.0
108300,402.0
108320,402.0
108340,402.0
108360,400.0
108380,396.0
108400,405.0
108420,403.0
108440,399.0
108460,379.0
108480,206.0
108500,199.0
108520,194.0
108540,187.0
108560,192.0
108580,213.0
108600,212.0
108620,212.0
108640,247.0
108660,248.0
108680,239.0
108700,225.0
108720,976.0
108740,845.0
108760,795.0
108780,966.0
108800,700.0
108820,867.0
108840,643.0
108860,613.0
108880,791.0
108900,571.0
108920,560.0
108940,546.0
108960,537.0
108980,531.0
109000,735.0
109020,521.0
109040,727.0
109060,521.0
109080,511.0
109100,592.0
109120,528.0
109140,535.0
109160,722.0
109180,547.0
109200,560.0
109220,561.0
109240,566.0
109260,782.0
109280,576.0
109300,589.0
109320,622.0
109340,607.0
109360,635.0
109380,639.0
109400,658.0
109420,881.0
109440,711.0
109460,770.0
109480,783.0
109500,816.0
109520,908.0
109540,899.0
109560,944.0
109580,244.0
109600,246.0
109620,247.0
109640,252.0
109660,254.0
109680,260.0
109700,255.0
109720,214.0
109740,216.0
109760,236.0
109780,206.0
109800,204.0
109820,237.0
109840,225.0
109860,235.0
109880,255.0
109900,259.0
109920,241.0
109940,251.0
109960,248.0
109980,229.0
110000,965.0
110020,862.0
110040,826.0
110060,781.0
110080,742.0
110100,918.0
110120,683.0
110140,786.0
110160,641.0
110180,624.0
110200,614.0
110220,599.0
110240,804.0
110260,587.0
110280,588.0
110300,589.0
110320,582.0
110340,786.0
110360,591.0
110380,734.0
110400,601.0
110420,603.0
110440,815.0
110460,612.0
110480,611.0
110500,627.0
110520,614.0
110540,617.0
110560,615.0
110580,614.0
110600,657.0
110620,605.0
110640,602.0
110660,599.0
110680,592.0
110700,629.0
110720,583.0
110740,777.0
110760,580.0
110780,576.0
110800,773.0
110820,570.0
110840,573.0
110860,580.0
110880,575.0
110900,683.0
110920,583.0
110940,593.0
110960,621.0
110980,611.0
111000,830.0
111020,642.0
111040,657.0
111060,688.0
111080,694.0
111100,928.0
111120,747.0
111140,768.0
111160,995.0
111180,807.0
111200,838.0
111220,867.0
111240,880.0
111260,938.0
111280,949.0
111300,996.0
111320,214.0
111340,168.0
111360,707.0
111380,216.0
111400,215.0
111420,214.0
111440,199.0
111460,197.0
111480,195.0
111500,207.0
111520,211.0
111540,214.0
111560,197.0
111580,198.0
111600,199.0
111620,228.0
111640,211.0
111660,185.0
111680,193.0
111700,403.0
111720,403.0
111740,542.0
111760,503.0
111780,497.0
111800,469.0
111820,554.0
111840,438.0
111860,422.0
111880,602.0
111900,400.0
111920,388.0
111940,592.0
111960,369.0
111980,363.0
112000,355.0
112020,338.0
112040,336.0
112060,334.0
112080,320.0
112100,319.0
112120,319.0
112140,309.0
112160,511.0
112180,306.0
112200,304.0
112220,496.0
112240,305.0
112260,335.0
112280,318.0
112300,324.0
112320,351.0
112340,340.0
112360,352.0
112380,382.0
112400,375.0
112420,532.0
112440,408.0
112460,420.0
112480,640.0
112500,459.0
112520,477.0
112540,691.0
112560,526.0
112580,548.0
112600,770.0
112620,581.0
112640,611.0
112660,693.0
112680,652.0
112700,678.0
112720,706.0
112740,720.0
112760,882.0
112780,780.0
112800,998.0
112820,819.0
112840,841.0
112860,862.0
112880,862.0
112900,987.0
112920,882.0
112940,890.0
112960,896.0
112980,894.0
113000,895.0
113020,880.0
113040,872.0
113060,834.0
113080,791.0
113100,784.0
113120,754.0
113140,736.0
113160,880.0
113180,693.0
113200,690.0
113220,677.0
113240,673.0
113260,667.0
113280,666.0
113300,670.0
113320,719.0
113340,846.0
113360,692.0
113380,917.0
113400,717.0
113420,865.0
113440,750.0
113460,822.0
113480,783.0
113500,798.0
113520,819.0
113540,896.0
113560,695.0
113580,703.0
113600,886.0
113620,709.0
113640,713.0
113660,719.0
113680,934.0
113700,727.0
113720,741.0
113740,891.0
113760,755.0
113780,762.0
113800,774.0
113820,995.0
113840,793.0
113860,803.0
113880,837.0
113900,848.0
113920,929.0
113940,882.0
113960,900.0
113980,907.0
114000,913.0
114020,930.0
114040,948.0
114060,954.0
114080,954.0
114100,954.0
114120,954.0
114140,923.0
114160,911.0
114180,896.0
114200,885.0
114220,899.0
114240,852.0
114260,831.0
114280,828.0
114300,829.0
114320,800.0
114340,899.0
114360,816.0
114380,784.0
114400,774.0
114420,928.0
114440,768.0
114460,768.0
114480,784.0
114500,949.0
114520,783.0
114540,797.0
114560,802.0
114580,805.0
114600,816.0
114620,830.0
114640,835.0
114660,848.0
114680,867.0
114700,870.0
114720,882.0
114740,901.0
114760,903.0
114780,921.0
114800,944.0
114820,879.0
114840,880.0
114860,867.0
114880,870.0
114900,874.0
114920,880.0
114940,880.0
114960,880.0
114980,897.0
115000,896.0
115020,905.0
115040,911.0
115060,922.0
115080,935.0
115100,944.0
115120,955.0
115140,974.0
115160,977.0
115180,997.0
115200,120.0
115220,119.0
115240,118.0
115260,168.0
115280,165.0
115300,162.0
115320,166.0
115340,217.0
115360,216.0
115380,216.0
115400,212.0
115420,200.0
115440,202.0
115460,206.0
115480,228.0
115500,169.0
115520,163.0
115540,210.0
115560,212.0
115580,216.0
115600,242.0
115620,251.0
115640,259.0
115660,867.0
115680,948.0
115700,896.0
115720,802.0
115740,720.0
115760,671.0
115780,625.0
115800,602.0
115820,565.0
115840,533.0
115860,511.0
115880,509.0
115900,497.0
115920,486.0
115940,480.0
115960,482.0
115980,482.0
116000,485.0
116020,494.0
116040,502.0
116060,511.0
116080,511.0
116100,528.0
116120,530.0
116140,537.0
116160,543.0
116180,546.0
116200,551.0
116220,555.0
116240,560.0
116260,560.0
116280,567.0
116300,575.0
116320,586.0
116340,581.0
116360,589.0
116380,600.0
116400,619.0
116420,628.0
116440,641.0
116460,656.0
116480,682.0
116500,703.0
116520,720.0
116540,727.0
116560,752.0
116580,804.0
116600,818.0
116620,103.0
116640,860.0
116660,883.0
116680,927.0
116700,942.0
116720,994.0
116740,997.0
116760,977.0
116780,125.0
116800,127.0
116820,107.0
116840,232.0
116860,142.0
116880,144.0
116900,128.0
116920,127.0
116940,128.0
116960,134.0
116980,192.0
117000,192.0
117020,191.0
117040,223.0
117060,222.0
117080,222.0
117100,880.0
117120,891.0
117140,899.0
117160,914.0
117180,925.0
117200,930.0
117220,934.0
117240,932.0
117260,943.0
117280,954.0
117300,975.0
117320,983.0
117340,188.0
117360,169.0
117380,194.0
117400,195.0
117420,198.0
117440,230.0
117460,255.0
117480,254.0
117500,194.0
117520,200.0
117540,201.0
117560,177.0
117580,152.0
117600,107.0
117620,997.0
117640,857.0
117660,575.0
117680,586.0
117700,607.0
117720,602.0
117740,823.0
117760,624.0
117780,634.0
117800,643.0
117820,647.0
117840,863.0
117860,658.0
117880,874.0
117900,665.0
117920,663.0
117940,663.0
117960,656.0
117980,859.0
118000,640.0
118020,631.0
118040,627.0
118060,609.0
118080,597.0
118100,579.0
118120,763.0
118140,537.0
118160,726.0
118180,496.0
118200,483.0
118220,478.0
118240,456.0
118260,448.0
118280,436.0
118300,427.0
118320,629.0
118340,412.0
118360,407.0
118380,617.0
118400,400.0
118420,610.0
118440,401.0
118460,401.0
118480,618.0
118500,411.0
118520,418.0
118540,445.0
118560,433.0
118580,445.0
118600,458.0
118620,469.0
118640,560.0
118660,496.0
118680,548.0
118700,534.0
118720,573.0
118740,579.0
118760,806.0
118780,601.0
118800,615.0
118820,625.0
118840,625.0
118860,817.0
118880,631.0
118900,628.0
118920,627.0
118940,623.0
118960,614.0
118980,603.0
119000,591.0
119020,579.0
119040,569.0
119060,558.0
119080,541.0
119100,528.0
119120,501.0
119140,489.0
119160,474.0
119180,455.0
119200,443.0
119220,431.0
119240,420.0
119260,406.0
119280,399.0
119300,386.0
119320,378.0
119340,369.0
119360,363.0
119380,357.0
119400,352.0
119420,351.0
119440,350.0
119460,400.0
119480,560.0
119500,546.0
119520,539.0
119540,528.0
119560,511.0
119580,498.0
119600,490.0
119620,473.0
119640,463.0
119660,442.0
119680,432.0
119700,418.0
119720,435.0
119740,384.0
119760,379.0
119780,368.0
119800,356.0
119820,341.0
119840,332.0
119860,322.0
119880,315.0
119900,306.0
119920,304.0
119940,292.0
119960,289.0
119980,284.0
120000,281.0
120020,280.0
120040,279.0
120060,283.0
120080,288.0
120100,296.0
120120,304.0
120140,322.0
120160,341.0
120180,359.0
120200,375.0
120220,394.0
120240,409.0
120260,421.0
120280,435.0
120300,448.0
120320,457.0
120340,464.0
120360,473.0
120380,477.0
120400,477.0
120420,469.0
120440,462.0
120460,445.0
120480,432.0
120500,415.0
120520,395.0
120540,374.0
120560,354.0
120580,334.0
120600,312.0
120620,290.0
120640,271.0
120660,250.0
120680,241.0
120700,225.0
120720,214.0
120740,207.0
120760,198.0
120780,193.0
120800,191.0
120820,192.0
120840,192.0
120860,196.0
120880,205.0
120900,208.0
120920,218.0
120940,227.0
120960,241.0
120980,251.0
121000,267.0
121020,279.0
121040,298.0
121060,310.0
121080,327.0
121100,342.0
121120,357.0
121140,372.0
121160,384.0
121180,394.0
121200,402.0
121220,411.0
121240,417.0
121260,426.0
121280,427.0
121300,432.0
121320,432.0
121340,368.0
121360,227.0
121380,240.0
121400,247.0
121420,258.0
121440,267.0
121460,272.0
121480,295.0
121500,304.0
121520,319.0
121540,333.0
121560,343.0
121580,358.0
121600,368.0
121620,393.0
121640,416.0
121660,432.0
121680,457.0
121700,465.0
121720,478.0
121740,489.0
121760,493.0
121780,493.0
121800,491.0
121820,483.0
121840,471.0
121860,464.0
121880,455.0
121900,437.0
121920,421.0
121940,405.0
121960,384.0
121980,372.0
122000,358.0
122020,343.0
122040,335.0
122060,321.0
122080,310.0
122100,304.0
122120,301.0
122140,295.0
122160,290.0
122180,291.0
122200,293.0
122220,296.0
122240,302.0
122260,310.0
122280,320.0
122300,336.0
122320,361.0
122340,377.0
122360,400.0
122380,425.0
122400,450.0
122420,467.0
122440,496.0
122460,519.0
122480,544.0
122500,551.0
122520,574.0
122540,576.0
122560,590.0
122580,592.0
122600,593.0
122620,595.0
122640,594.0
122660,591.0
122680,585.0
122700,576.0
122720,571.0
122740,560.0
122760,550.0
122780,539.0
122800,528.0
122820,511.0
122840,497.0
122860,491.0
122880,471.0
122900,463.0
122920,453.0
122940,444.0
122960,434.0
122980,428.0
123000,422.0
123020,416.0
123040,411.0
123060,407.0
123080,402.0
123100,404.0
123120,405.0
123140,404.0
123160,410.0
123180,501.0
123200,725.0
123220,716.0
123240,706.0
123260,695.0
123280,689.0
123300,678.0
123320,660.0
123340,650.0
123360,640.0
123380,630.0
123400,615.0
123420,607.0
123440,593.0
123460,587.0
123480,577.0
123500,572.0
123520,566.0
123540,560.0
123560,554.0
123580,549.0
123600,547.0
123620,545.0
123640,545.0
123660,544.0
123680,547.0
123700,547.0
123720,550.0
123740,558.0
123760,560.0
123780,560.0
123800,575.0
123820,580.0
123840,590.0
123860,593.0
123880,611.0
123900,623.0
123920,631.0
123940,645.0
123960,656.0
123980,675.0
124000,688.0
124020,701.0
124040,708.0
124060,745.0
124080,761.0
124100,778.0
124120,800.0
124140,807.0
124160,823.0
124180,832.0
124200,838.0
124220,842.0
124240,843.0
124260,845.0
124280,841.0
124300,835.0
124320,832.0
124340,823.0
124360,817.0
124380,798.0
124400,798.0
124420,787.0
124440,779.0
124460,768.0
124480,759.0
124500,755.0
124520,749.0
124540,741.0
124560,740.0
124580,737.0
124600,734.0
124620,739.0
124640,743.0
124660,747.0
124680,755.0
124700,761.0
124720,771.0
124740,976.0
124760,921.0
124780,937.0
124800,944.0
124820,954.0
124840,951.0
124860,997.0
124880,963.0
124900,971.0
124920,966.0
124940,964.0
124960,958.0
124980,944.0
125000,938.0
125020,915.0
125040,882.0
125060,864.0
125080,821.0
125100,803.0
125120,994.0
125140,771.0
125160,753.0
125180,941.0
125200,717.0
125220,695.0
125240,867.0
125260,656.0
125280,641.0
125300,814.0
125320,610.0
125340,593.0
125360,786.0
125380,572.0
125400,560.0
125420,624.0
125440,541.0
125460,529.0
125480,705.0
125500,511.0
125520,509.0
125540,694.0
125560,511.0
125580,508.0
125600,711.0
125620,510.0
125640,510.0
125660,731.0
125680,528.0
125700,530.0
125720,727.0
125740,550.0
125760,560.0
125780,774.0
125800,574.0
125820,576.0
125840,601.0
125860,604.0
125880,619.0
125900,624.0
125920,625.0
125940,640.0
125960,626.0
125980,806.0
126000,616.0
126020,787.0
126040,592.0
126060,642.0
126080,560.0
126100,544.0
126120,511.0
126140,491.0
126160,458.0
126180,621.0
126200,407.0
126220,388.0
126240,368.0
126260,349.0
126280,529.0
126300,314.0
126320,471.0
126340,291.0
126360,274.0
126380,321.0
126400,261.0
126420,462.0
126440,257.0
126460,258.0
126480,270.0
126500,267.0
126520,442.0
126540,511.0
126560,498.0
126580,711.0
126600,496.0
126620,498.0
126640,705.0
126660,500.0
126680,497.0
126700,501.0
126720,718.0
126740,511.0
126760,511.0
126780,522.0
126800,538.0
126820,535.0
126840,547.0
126860,737.0
126880,566.0
126900,576.0
126920,585.0
126940,811.0
126960,613.0
126980,624.0
127000,822.0
127020,662.0
127040,670.0
127060,873.0
127080,735.0
127100,775.0
127120,961.0
127140,794.0
127160,827.0
127180,861.0
127200,875.0
127220,896.0
127240,926.0
127260,941.0
127280,976.0
127300,992.0
127320,106.0
127340,138.0
127360,137.0
127380,526.0
127400,176.0
127420,178.0
127440,853.0
127460,231.0
127480,235.0
127500,233.0
127520,218.0
127540,218.0
127560,266.0
127580,236.0
127600,322.0
127620,299.0
127640,267.0
127660,535.0
127680,591.0
127700,106.0
127720,143.0
127740,143.0
127760,142.0
127780,179.0
127800,171.0
127820,202.0
127840,246.0
127860,247.0
127880,270.0
127900,278.0
127920,275.0
127940,260.0
127960,261.0
127980,276.0
128000,259.0
128020,296.0
128040,293.0
128060,303.0
128080,300.0
128100,298.0
128120,278.0
128140,280.0
128160,281.0
128180,228.0
128200,228.0
128220,229.0
128240,280.0
128260,278.0
128280,301.0
128300,298.0
128320,254.0
128340,253.0
128360,254.0
128380,226.0
128400,207.0
128420,229.0
128440,207.0
128460,33.0
128480,163.0
128500,190.0
128520,171.0
128540,148.0
128560,160.0
128580,141.0
128600,139.0
128620,123.0
128640,124.0
128660,999.0
128680,933.0
128700,883.0
128720,840.0
128740,779.0
128760,721.0
128780,681.0
128800,625.0
128820,581.0
128840,547.0
128860,474.0
128880,406.0
128900,343.0
128920,294.0
128940,240.0
128960,192.0
128980,146.0
129000,114.0
129020,97.0
129040,94.0
129060,94.0
129080,94.0
129100,93.0
129120,94.0
129140,92.0
129160,93.0
129180,95.0
129200,95.0
129220,96.0
129240,97.0
129260,113.0
129280,128.0
129300,145.0
129320,150.0
129340,192.0
129360,211.0
129380,255.0
129400,277.0
129420,311.0
129440,345.0
129460,375.0
129480,401.0
129500,442.0
129520,471.0
129540,496.0
129560,546.0
129580,557.0
129600,576.0
129620,602.0
129640,615.0
129660,633.0
129680,647.0
129700,657.0
129720,667.0
129740,673.0
129760,675.0
129780,677.0
129800,675.0
129820,675.0
129840,674.0
129860,669.0
129880,667.0
129900,659.0
129920,659.0
129940,654.0
129960,649.0
129980,642.0
130000,625.0
130020,630.0
130040,629.0
130060,627.0
130080,666.0
130100,292.0
130120,268.0
130140,559.0
130160,173.0
130180,172.0
130200,293.0
130220,277.0
130240,986.0
130260,964.0
130280,925.0
130300,855.0
130320,783.0
130340,755.0
130360,719.0
130380,686.0
130400,661.0
130420,646.0
130440,603.0
130460,592.0
130480,582.0
130500,567.0
130520,560.0
130540,551.0
130560,548.0
130580,554.0
130600,545.0
130620,547.0
130640,547.0
130660,561.0
130680,571.0
130700,583.0
130720,592.0
130740,606.0
130760,615.0
130780,625.0
130800,634.0
130820,646.0
130840,656.0
130860,665.0
130880,675.0
130900,697.0
130920,707.0
130940,725.0
130960,737.0
130980,750.0
131000,766.0
131020,859.0
131040,990.0
131060,124.0
131080,123.0
131100,144.0
131120,147.0
131140,157.0
131160,153.0
131180,171.0
131200,169.0
131220,169.0
131240,164.0
131260,161.0
131280,160.0
131300,182.0
131320,184.0
131340,193.0
131360,176.0
131380,177.0
131400,216.0
131420,216.0
131440,240.0
131460,228.0
131480,230.0
131500,255.0
131520,254.0
131540,251.0
131560,252.0
131580,251.0
131600,216.0
131620,215.0
131640,217.0
131660,234.0
131680,235.0
131700,237.0
131720,246.0
131740,229.0
131760,269.0
131780,222.0
131800,221.0
131820,219.0
131840,224.0
131860,248.0
131880,229.0
131900,232.0
131920,128.0
131940,173.0
131960,169.0
131980,186.0
132000,174.0
132020,173.0
132040,171.0
132060,190.0
132080,193.0
132100,949.0
132120,182.0
132140,180.0
132160,187.0
132180,190.0
132200,196.0
132220,193.0
132240,188.0
132260,198.0
132280,198.0
132300,220.0
132320,204.0
132340,206.0
132360,207.0
132380,225.0
132400,224.0
132420,201.0
132440,199.0
132460,219.0
132480,221.0
132500,258.0
132520,263.0
132540,403.0
132560,943.0
132580,880.0
132600,844.0
132620,811.0
132640,720.0
132660,683.0
132680,661.0
132700,640.0
132720,614.0
132740,597.0
132760,588.0
132780,577.0
132800,576.0
132820,576.0
132840,577.0
132860,583.0
132880,592.0
132900,624.0
132920,631.0
132940,650.0
132960,662.0
132980,689.0
133000,705.0
133020,735.0
133040,751.0
133060,793.0
133080,816.0
133100,973.0
133120,854.0
133140,902.0
133160,944.0
133180,127.0
133200,230.0
133220,228.0
133240,237.0
133260,238.0
133280,228.0
133300,229.0
133320,204.0
133340,185.0
133360,184.0
133380,181.0
133400,190.0
133420,197.0
133440,401.0
133460,402.0
133480,403.0
133500,403.0
133520,399.0
133540,221.0
133560,203.0
133580,112.0
133600,258.0
133620,346.0
133640,347.0
133660,384.0
133680,193.0
133700,203.0
133720,222.0
133740,206.0
133760,205.0
133780,186.0
133800,187.0
133820,238.0
133840,224.0
133860,223.0
133880,222.0
133900,219.0
133920,223.0
133940,220.0
133960,216.0
133980,213.0
134000,181.0
134020,180.0
134040,180.0
134060,236.0
134080,201.0
134100,954.0
134120,976.0
134140,709.0
134160,624.0
134180,550.0
134200,690.0
134220,477.0
134240,400.0
134260,336.0
134280,279.0
134300,187.0
134320,150.0
134340,161.0
134360,94.0
134380,95.0
134400,94.0
134420,93.0
134440,176.0
134460,95.0
134480,169.0
134500,96.0
134520,96.0
134540,89.0
134560,95.0
134580,96.0
134600,94.0
134620,121.0
134640,94.0
134660,96.0
134680,96.0
134700,101.0
134720,110.0
134740,128.0
134760,144.0
134780,337.0
134800,426.0
134820,444.0
134840,444.0
134860,450.0
134880,453.0
134900,469.0
134920,570.0
134940,496.0
134960,508.0
134980,527.0
135000,537.0
135020,624.0
135040,559.0
135060,702.0
135080,576.0
135100,580.0
135120,613.0
135140,593.0
135160,598.0
135180,672.0
135200,603.0
135220,745.0
135240,606.0
135260,597.0
135280,665.0
135300,589.0
135320,585.0
135340,574.0
135360,559.0
135380,546.0
135400,528.0
135420,508.0
135440,500.0
135460,561.0
135480,469.0
135500,458.0
135520,533.0
135540,432.0
135560,413.0
135580,405.0
135600,399.0
135620,398.0
135640,385.0
135660,384.0
135680,380.0
135700,379.0
135720,421.0
135740,379.0
135760,589.0
135780,388.0
135800,394.0
135820,407.0
135840,412.0
135860,631.0
135880,434.0
135900,543.0
135920,467.0
135940,481.0
135960,509.0
135980,603.0
136000,560.0
136020,585.0
136040,739.0
136060,613.0
136080,636.0
136100,625.0
136120,627.0
136140,624.0
136160,612.0
136180,601.0
136200,576.0
136220,563.0
136240,539.0
136260,522.0
136280,496.0
136300,481.0
136320,468.0
136340,460.0
136360,476.0
136380,791.0
136400,789.0
136420,784.0
136440,782.0
136460,767.0
136480,753.0
136500,751.0
136520,741.0
136540,721.0
136560,711.0
136580,699.0
136600,688.0
136620,679.0
136640,670.0
136660,662.0
136680,661.0
136700,656.0
136720,656.0
136740,656.0
136760,661.0
136780,673.0
136800,688.0
136820,707.0
136840,730.0
136860,752.0
136880,782.0
136900,811.0
136920,837.0
136940,859.0
136960,880.0
136980,906.0
137000,923.0
137020,943.0
137040,960.0
137060,975.0
137080,980.0
137100,981.0
137120,984.0
137140,980.0
137160,976.0
137180,971.0
137200,963.0
137220,951.0
137240,941.0
137260,930.0
137280,915.0
137300,901.0
137320,891.0
137340,880.0
137360,871.0
137380,864.0
137400,858.0
137420,850.0
137440,880.0
137460,127.0
137480,850.0
137500,810.0
137520,816.0
137540,834.0
137560,849.0
137580,880.0
137600,908.0
137620,961.0
137640,988.0
137660,853.0
137680,980.0
137700,961.0
137720,944.0
137740,933.0
137760,923.0
137780,913.0
137800,910.0
137820,907.0
137840,909.0
137860,908.0
137880,912.0
137900,917.0
137920,921.0
137940,935.0
137960,944.0
137980,959.0
138000,974.0
138020,987.0
138040,127.0
138060,127.0
138080,153.0
138100,156.0
138120,160.0
138140,188.0
138160,188.0
138180,639.0
138200,173.0
138220,172.0
138240,165.0
138260,142.0
138280,175.0
138300,505.0
138320,121.0
138340,142.0
138360,119.0
138380,148.0
138400,147.0
138420,392.0
138440,158.0
138460,152.0
138480,158.0
138500,161.0
138520,422.0
138540,443.0
138560,463.0
138580,475.0
138600,485.0
138620,502.0
138640,527.0
138660,543.0
138680,561.0
138700,587.0
138720,610.0
138740,640.0
138760,671.0
138780,707.0
138800,742.0
138820,828.0
138840,817.0
138860,857.0
138880,898.0
138900,944.0
138920,977.0
138940,994.0
138960,997.0
138980,973.0
139000,918.0
139020,892.0
139040,871.0
139060,843.0
139080,818.0
139100,804.0
139120,994.0
139140,784.0
139160,789.0
139180,787.0
139200,870.0
139220,848.0
139240,839.0
139260,830.0
139280,816.0
139300,825.0
139320,949.0
139340,820.0
139360,822.0
139380,832.0
139400,832.0
139420,890.0
139440,848.0
139460,943.0
139480,874.0
139500,882.0
139520,902.0
139540,912.0
139560,944.0
139580,973.0
139600,979.0
139620,954.0
139640,943.0
139660,915.0
139680,912.0
139700,906.0
139720,891.0
139740,897.0
139760,879.0
139780,872.0
139800,862.0
139820,877.0
139840,880.0
139860,895.0
139880,976.0
139900,995.0
139920,976.0
139940,963.0
139960,963.0
139980,962.0
140000,970.0
140020,971.0
140040,990.0
140060,995.0
140080,934.0
140100,877.0
140120,785.0
140140,727.0
140160,688.0
140180,642.0
140200,616.0
140220,563.0
140240,499.0
140260,432.0
140280,411.0
140300,400.0
140320,386.0
140340,367.0
140360,356.0
140380,347.0
140400,340.0
140420,336.0
140440,336.0
140460,338.0
140480,339.0
140500,348.0
140520,356.0
140540,364.0
140560,373.0
140580,402.0
140600,421.0
140620,432.0
140640,451.0
140660,496.0
140680,540.0
140700,985.0
140720,273.0
140740,274.0
140760,213.0
140780,210.0
140800,114.0
140820,234.0
140840,236.0
140860,237.0
140880,221.0
140900,238.0
140920,206.0
140940,217.0
140960,216.0
140980,195.0
141000,201.0
141020,753.0
141040,190.0
141060,175.0
141080,160.0
141100,160.0
141120,175.0
141140,175.0
141160,339.0
141180,331.0
141200,146.0
141220,147.0
141240,148.0
141260,148.0
141280,468.0
141300,993.0
141320,992.0
141340,999.0
141360,100.0
141380,101.0
141400,109.0
141420,103.0
141440,978.0
141460,963.0
141480,958.0
141500,942.0
141520,913.0
141540,897.0
141560,878.0
141580,857.0
141600,834.0
141620,826.0
141640,789.0
141660,810.0
141680,799.0
141700,791.0
141720,784.0
141740,783.0
141760,780.0
141780,781.0
141800,781.0
141820,781.0
141840,784.0
141860,791.0
141880,788.0
141900,794.0
141920,793.0
141940,811.0
141960,816.0
141980,820.0
142000,830.0
142020,882.0
142040,623.0
142060,619.0
142080,595.0
142100,587.0
142120,576.0
142140,565.0
142160,560.0
142180,553.0
142200,546.0
142220,538.0
142240,534.0
142260,528.0
142280,528.0
142300,525.0
142320,521.0
142340,521.0
142360,522.0
142380,511.0
142400,523.0
142420,527.0
142440,523.0
142460,530.0
142480,534.0
142500,541.0
142520,547.0
142540,551.0
142560,559.0
142580,562.0
142600,573.0
142620,576.0
142640,586.0
142660,592.0
142680,599.0
142700,608.0
142720,615.0
142740,619.0
142760,624.0
142780,627.0
142800,647.0
142820,641.0
142840,645.0
142860,641.0
142880,640.0
142900,640.0
142920,629.0
142940,627.0
142960,622.0
142980,617.0
143000,607.0
143020,596.0
143040,592.0
143060,582.0
143080,574.0
143100,554.0
143120,527.0
143140,511.0
143160,499.0
143180,485.0
143200,460.0
143220,436.0
143240,422.0
143260,409.0
143280,400.0
143300,387.0
143320,368.0
143340,362.0
143360,355.0
143380,348.0
143400,342.0
143420,342.0
143440,345.0
143460,349.0
143480,353.0
143500,360.0
143520,368.0
143540,372.0
143560,382.0
143580,390.0
143600,397.0
143620,401.0
143640,413.0
143660,420.0
143680,432.0
143700,308.0
143720,272.0
143740,399.0
143760,374.0
143780,352.0
143800,336.0
143820,315.0
143840,292.0
143860,273.0
143880,259.0
143900,241.0
143920,225.0
143940,213.0
143960,206.0
143980,203.0
144000,197.0
144020,199.0
144040,197.0
144060,202.0
144080,207.0
144100,214.0
144120,227.0
144140,240.0
144160,251.0
144180,267.0
144200,277.0
144220,291.0
144240,306.0
144260,320.0
144280,331.0
144300,345.0
144320,357.0
144340,365.0
144360,373.0
144380,378.0
144400,384.0
144420,384.0
144440,391.0
144460,381.0
144480,383.0
144500,357.0
144520,354.0
144540,336.0
144560,320.0
144580,306.0
144600,281.0
144620,259.0
144640,241.0
144660,217.0
144680,187.0
144700,163.0
144720,144.0
144740,207.0
144760,93.0
144780,95.0
144800,94.0
144820,93.0
144840,93.0
144860,91.0
144880,93.0
144900,94.0
144920,96.0
144940,94.0
144960,94.0
144980,95.0
145000,93.0
145020,95.0
145040,93.0
145060,94.0
145080,95.0
145100,94.0
145120,93.0
145140,96.0
145160,98.0
145180,100.0
145200,103.0
145220,105.0
145240,108.0
145260,107.0
145280,105.0
145300,101.0
145320,97.0
145340,95.0
145360,94.0
145380,90.0
145400,93.0
145420,90.0
145440,95.0
145460,93.0
145480,95.0
145500,93.0
145520,93.0
145540,93.0
145560,95.0
145580,93.0
145600,93.0
145620,92.0
145640,93.0
145660,94.0
145680,93.0
145700,93.0
145720,95.0
145740,93.0
145760,93.0
145780,92.0
145800,95.0
145820,92.0
145840,94.0
145860,93.0
145880,93.0
145900,93.0
145920,93.0
145940,93.0
145960,95.0
145980,92.0
146000,94.0
146020,93.0
146040,95.0
146060,94.0
146080,94.0
146100,93.0
146120,94.0
146140,92.0
146160,80.0
146180,92.0
146200,94.0
146220,95.0
146240,94.0
146260,93.0
146280,93.0
146300,94.0
146320,94.0
146340,94.0
146360,94.0
146380,96.0
146400,93.0
146420,93.0
146440,95.0
146460,96.0
146480,93.0
146500,94.0
146520,93.0
146540,93.0
146560,94.0
146580,95.0
146600,94.0
146620,93.0
146640,95.0
146660,94.0
146680,94.0
146700,94.0
146720,93.0
146740,103.0
146760,94.0
146780,91.0
146800,94.0
146820,93.0
146840,93.0
146860,94.0
146880,93.0
146900,94.0
146920,93.0
146940,94.0
146960,92.0
146980,95.0
147000,94.0
147020,95.0
147040,94.0
147060,94.0
147080,94.0
147100,95.0
147120,94.0
147140,94.0
147160,95.0
147180,93.0
147200,92.0
147220,94.0
147240,92.0
147260,93.0
147280,94.0
147300,95.0
147320,92.0
147340,94.0
147360,96.0
147380,94.0
147400,94.0
147420,93.0
147440,94.0
147460,93.0
147480,93.0
147500,94.0
147520,92.0
147540,95.0
147560,93.0
147580,94.0
147600,90.0
147620,99.0
147640,95.0
147660,95.0
147680,92.0
147700,95.0
147720,92.0
147740,95.0
147760,93.0
147780,93.0
147800,95.0
147820,93.0
147840,95.0
147860,93.0
147880,93.0
147900,94.0
147920,94.0
147940,95.0
147960,93.0
147980,96.0
148000,91.0
148020,91.0
148040,95.0
148060,96.0
148080,93.0
148100,93.0
148120,95.0
148140,91.0
148160,93.0
148180,93.0
148200,95.0
148220,94.0
148240,94.0
148260,94.0
148280,94.0
148300,91.0
148320,95.0
148340,94.0
148360,92.0
148380,93.0
148400,94.0
148420,91.0
148440,93.0
148460,94.0
148480,94.0
148500,93.0
148520,94.0
148540,93.0
148560,97.0
148580,93.0
148600,96.0
148620,92.0
148640,93.0
148660,96.0
148680,93.0
148700,91.0
148720,93.0
148740,95.0
148760,92.0
148780,94.0
148800,91.0
148820,94.0
148840,93.0
148860,94.0
148880,93.0
148900,95.0
148920,94.0
148940,205.0
148960,243.0
148980,272.0
149000,295.0
149020,332.0
149040,352.0
149060,377.0
149080,406.0
149100,432.0
149120,451.0
149140,474.0
149160,487.0
149180,498.0
149200,511.0
149220,527.0
149240,528.0
149260,529.0
149280,528.0
149300,525.0
149320,511.0
149340,507.0
149360,498.0
149380,490.0
149400,475.0
149420,464.0
149440,455.0
149460,442.0
149480,432.0
149500,417.0
149520,401.0
149540,392.0
149560,381.0
149580,369.0
149600,358.0
149620,352.0
149640,346.0
149660,339.0
149680,336.0
149700,336.0
149720,335.0
149740,334.0
149760,336.0
149780,336.0
149800,334.0
149820,343.0
149840,347.0
149860,352.0
149880,355.0
149900,367.0
149920,371.0
149940,375.0
149960,383.0
149980,389.0
150000,395.0
150020,398.0
150040,399.0
150060,400.0
150080,400.0
150100,400.0
150120,298.0
150140,93.0
150160,93.0
150180,90.0
150200,91.0
150220,94.0
150240,93.0
150260,93.0
150280,93.0
150300,94.0
150320,94.0
150340,93.0
150360,94.0
150380,93.0
150400,97.0
150420,91.0
150440,93.0
150460,94.0
150480,92.0
150500,92.0
150520,93.0
150540,92.0
150560,92.0
150580,91.0
150600,92.0
150620,94.0
150640,103.0
150660,93.0
150680,93.0
150700,91.0
150720,94.0
150740,93.0
150760,93.0
150780,95.0
150800,94.0
150820,94.0
150840,93.0
150860,91.0
150880,91.0
150900,91.0
150920,93.0
150940,94.0
150960,94.0
150980,93.0
151000,93.0
151020,93.0
151040,94.0
151060,94.0
151080,93.0
151100,91.0
151120,94.0
151140,94.0
151160,93.0
151180,95.0
151200,94.0
151220,93.0
151240,97.0
151260,91.0
151280,94.0
151300,96.0
151320,133.0
151340,180.0
151360,233.0
151380,280.0
151400,357.0
151420,415.0
151440,479.0
151460,561.0
151480,623.0
151500,673.0
151520,749.0
151540,792.0
151560,825.0
151580,848.0
151600,877.0
151620,885.0
151640,899.0
151660,890.0
151680,901.0
151700,864.0
151720,801.0
151740,770.0
151760,719.0
151780,670.0
151800,829.0
151820,542.0
151840,634.0
151860,430.0
151880,341.0
151900,95.0
151920,95.0
151940,94.0
151960,96.0
151980,94.0
152000,305.0
152020,93.0
152040,97.0
152060,294.0
152080,87.0
152100,95.0
152120,251.0
152140,94.0
152160,125.0
152180,95.0
152200,93.0
152220,272.0
152240,95.0
152260,171.0
152280,94.0
152300,94.0
152320,285.0
152340,93.0
152360,303.0
152380,95.0
152400,95.0
152420,95.0
152440,96.0
152460,93.0
152480,103.0
152500,143.0
152520,94.0
152540,285.0
152560,93.0
152580,95.0
152600,96.0
152620,93.0
152640,99.0
152660,95.0
152680,95.0
152700,95.0
152720,95.0
152740,265.0
152760,95.0
152780,97.0
152800,93.0
152820,95.0
152840,97.0
152860,93.0
152880,165.0
152900,94.0
152920,96.0
152940,95.0
152960,93.0
152980,294.0
153000,94.0
153020,94.0
153040,97.0
153060,95.0
153080,304.0
153100,95.0
153120,96.0
153140,96.0
153160,96.0
153180,98.0
153200,228.0
153220,94.0
153240,115.0
153260,96.0
153280,94.0
153300,263.0
153320,95.0
153340,96.0
153360,97.0
153380,62.0
153400,176.0
153420,93.0
153440,305.0
153460,94.0
153480,96.0
153500,95.0
153520,96.0
153540,158.0
153560,94.0
153580,96.0
153600,307.0
153620,96.0
153640,95.0
153660,99.0
153680,95.0
153700,95.0
153720,97.0
153740,86.0
153760,95.0
153780,100.0
153800,96.0
153820,294.0
153840,95.0
153860,94.0
153880,176.0
153900,94.0
153920,95.0
153940,290.0
153960,94.0
153980,98.0
154000,96.0
154020,95.0
154040,286.0
154060,95.0
154080,95.0
154100,222.0
154120,95.0
154140,297.0
154160,95.0
154180,95.0
154200,96.0
154220,97.0
154240,94.0
154260,94.0
154280,94.0
154300,93.0
154320,93.0
154340,96.0
154360,307.0
154380,93.0
154400,262.0
154420,96.0
154440,94.0
154460,94.0
154480,97.0
154500,112.0
154520,94.0
154540,295.0
154560,94.0
154580,96.0
154600,94.0
154620,94.0
154640,93.0
154660,96.0
154680,102.0
154700,94.0
154720,94.0
154740,101.0
154760,96.0
154780,302.0
154800,95.0
154820,92.0
154840,94.0
154860,93.0
154880,93.0
154900,94.0
154920,93.0
154940,95.0
154960,94.0
154980,93.0
155000,94.0
155020,91.0
155040,94.0
155060,93.0
155080,92.0
155100,95.0
155120,80.0
155140,95.0
155160,93.0
155180,93.0
155200,93.0
155220,93.0
155240,93.0
155260,92.0
155280,94.0
155300,94.0
155320,95.0
155340,93.0
155360,95.0
155380,94.0
155400,91.0
155420,94.0
155440,94.0
155460,94.0
155480,92.0
155500,93.0
155520,94.0
155540,93.0
155560,95.0
155580,93.0
155600,94.0
155620,94.0
155640,94.0
155660,94.0
155680,93.0
155700,94.0
155720,91.0
155740,93.0
155760,92.0
155780,95.0
155800,93.0
155820,95.0
155840,94.0
155860,95.0
155880,93.0
155900,93.0
155920,94.0
155940,95.0
155960,94.0
155980,94.0
156000,93.0
156020,95.0
156040,94.0
156060,94.0
156080,94.0
156100,96.0
156120,94.0
156140,93.0
156160,94.0
156180,93.0
156200,93.0
156220,93.0
156240,94.0
156260,91.0
156280,95.0
156300,93.0
156320,91.0
156340,94.0
156360,95.0
156380,95.0
156400,95.0
156420,93.0
156440,91.0
156460,98.0
156480,95.0
156500,94.0
156520,95.0
156540,95.0
156560,101.0
156580,121.0
156600,145.0
156620,167.0
156640,200.0
156660,229.0
156680,253.0
156700,288.0
156720,331.0
156740,367.0
156760,401.0
156780,445.0
156800,829.0
156820,145.0
156840,148.0
156860,186.0
156880,187.0
156900,271.0
156920,269.0
156940,267.0
156960,249.0
156980,247.0
157000,231.0
157020,233.0
157040,252.0
157060,266.0
157080,248.0
157100,269.0
157120,739.0
157140,265.0
157160,267.0
157180,268.0
157200,269.0
157220,267.0
157240,262.0
157260,264.0
157280,267.0
157300,251.0
157320,262.0
157340,260.0
157360,259.0
157380,239.0
157400,910.0
157420,870.0
157440,836.0
157460,806.0
157480,767.0
157500,721.0
157520,711.0
157540,889.0
157560,658.0
157580,832.0
157600,627.0
157620,608.0
157640,790.0
157660,592.0
157680,579.0
157700,613.0
157720,242.0
157740,241.0
157760,239.0
157780,243.0
157800,243.0
157820,243.0
157840,262.0
157860,264.0
157880,976.0
157900,891.0
157920,862.0
157940,796.0
157960,770.0
157980,725.0
158000,739.0
158020,672.0
158040,704.0
158060,656.0
158080,637.0
158100,633.0
158120,626.0
158140,667.0
158160,631.0
158180,640.0
158200,654.0
158220,854.0
158240,682.0
158260,694.0
158280,915.0
158300,721.0
158320,753.0
158340,813.0
158360,848.0
158380,877.0
158400,944.0
158420,921.0
158440,943.0
158460,991.0
158480,982.0
158500,947.0
158520,927.0
158540,912.0
158560,902.0
158580,890.0
158600,882.0
158620,877.0
158640,869.0
158660,863.0
158680,859.0
158700,855.0
158720,845.0
158740,859.0
158760,863.0
158780,866.0
158800,871.0
158820,878.0
158840,886.0
158860,890.0
158880,896.0
158900,899.0
158920,906.0
158940,912.0
158960,915.0
158980,917.0
159000,922.0
159020,925.0
159040,926.0
159060,928.0
159080,926.0
159100,924.0
159120,919.0
159140,918.0
159160,912.0
159180,910.0
159200,906.0
159220,897.0
159240,883.0
159260,865.0
159280,853.0
159300,842.0
159320,831.0
159340,816.0
159360,784.0
159380,752.0
159400,737.0
159420,721.0
159440,706.0
159460,665.0
159480,639.0
159500,606.0
159520,595.0
159540,581.0
159560,566.0
159580,560.0
159600,542.0
159620,527.0
159640,507.0
159660,496.0
159680,486.0
159700,467.0
159720,464.0
159740,457.0
159760,449.0
159780,443.0
159800,435.0
159820,429.0
159840,428.0
159860,423.0
159880,400.0
159900,240.0
159920,229.0
159940,203.0
159960,182.0
159980,167.0
