time,value
0.0,79.31808803477523
4.0,107.64980540215149
8.0,134.99264780851163
12.0,161.36534314086418
16.0,186.78661928621761
20.0,211.27520413158047
24.0,234.8498255639612
28.0,257.5292114703683
32.0,279.3320897378104
36.0,300.27718825329583
40.0,320.3832349038332
44.0,339.668957576431
48.0,358.1530841580977
52.0,375.85434253584185
56.0,392.79146059667187
60.0,408.98316622759637
64.0,424.44818731562384
68.0,439.20525174776265
72.0,453.2730874110214
76.0,466.67042219240875
80.0,479.4159839789329
84.0,491.52850065760254
88.0,503.026700115426
92.0,513.9293102394122
96.0,524.2550589165692
100.0,534.0226740338435
104.0,543.5273771447827
108.0,552.4585097464758
112.0,560.8427493871395
116.0,568.7064988096184
120.0,576.0755087978945
124.0,582.9745525587177
128.0,589.42715595558
132.0,595.4553870932499
136.0,601.0797077559864
140.0,606.3188879741108
144.0,611.1899835062136
148.0,615.7083743263735
152.0,619.8878604314124
156.0,623.7408096018954
160.0,627.2783502953332
164.0,630.5106016885658
168.0,633.4469320396103
172.0,636.0962360070642
176.0,638.4672213374283
180.0,640.5686953918016
184.0,642.4098423141376
188.0,644.0004822210608
192.0,645.3513045905923
196.0,646.4740690119351
200.0,647.3817675959118
204.0,648.0887445996946
208.0,648.6107701538109
212.0,648.9650663584258
216.0,649.1702854054853
220.0,649.2464407500324
224.0,649.2147936638964
228.0,649.0976987234648
232.0,648.9184128777888
236.0,648.7008736858759
240.0,648.4694530805147
244.0,648.248693593933
248.0,648.0630343566104
252.0,647.9365343472962
256.0,647.8926003261832
260.0,647.9537266256939
264.0,648.1412535120862
268.0,648.4751501806637
272.0,648.9738276291026
276.0,649.6539856938083
280.0,650.5304974621037
284.0,651.6163331181917
288.0,652.9225240754718
292.0,654.4581670307296
296.0,656.2304663945902
300.0,658.2448124588151
304.0,660.5048916972896
308.0,663.0128247892602
312.0,665.7693273098376
316.0,668.7738875538678
320.0,672.0249556405098
324.0,675.5201378823351
328.0,679.2563903906839
332.0,683.2302060242399
336.0,687.4377890632019
340.0,691.8752123967879
344.0,696.5385525343721
348.0,701.4239983749651
352.0,706.5279303781789
356.0,711.8469675530251
360.0,717.3779804999615
364.0,723.1180695888819
368.0,729.0645082154972
372.0,735.2146519362977
376.0,741.565815124178
380.0,748.1151175993587
384.0,754.8593044598944
388.0,761.7945430489285
392.0,768.9162016384012
396.0,776.2186149687947
400.0,783.6948422509944
404.0,791.336423600422
408.0,799.1331411279315
412.0,807.0727910508363
416.0,815.140973206627
420.0,823.3209042485181
424.0,831.5932605738052
428.0,839.9360566816473
432.0,848.3245641768616
436.0,856.7312760349232
440.0,865.1259200292473
444.0,873.4755244068571
448.0,881.7445379964976
452.0,889.8950059591828
456.0,897.8868013617584
460.0,905.6779116877053
464.0,913.2247783158073
468.0,920.4826859169789
472.0,927.4061976633193
476.0,933.9496311330327
480.0,940.067568854246
484.0,945.7153965865166
488.0,950.8498617168102
492.0,955.4296435670104
496.0,959.4159269816258
500.0,962.7729702810105
504.0,965.4686585061397
508.0,967.4750328190751
512.0,968.7687869380427
516.0,969.3317215670471
520.0,969.1511479229805
524.0,968.2202316647291
528.0,966.5382687845118
532.0,964.1108853270853
536.0,960.9501531599683
540.0,957.0746144676941
544.0,952.5092083220419
548.0,947.2850938416439
552.0,941.4393663698345
556.0,935.014665899509
560.0,928.0586805589768
564.0,920.623552018426
568.0,912.7651936974112
572.0,904.5425361555657
576.0,896.0167167088388
580.0,887.2502320381976
584.0,878.3060733983368
588.0,869.2468640864132
592.0,860.1340181912504
596.0,851.0269383995586
600.0,841.9822688743163
604.0,833.0532170494657
608.0,824.2889557488706
612.0,815.7341144953481
616.0,807.4283663570845
620.0,799.4061142642048
624.0,791.6962784623112
628.0,784.322184676475
632.0,777.3015506443882
636.0,770.6465669353802
640.0,764.3640664020393
644.0,758.4557752235783
648.0,752.9186373083284
652.0,747.7452028424223
656.0,742.9240710250427
660.0,738.4403765357199
664.0,734.2763090332261
668.0,730.4116549600517
672.0,726.8243510720031
676.0,723.4910393742141
680.0,720.3876134851139
684.0,717.4897468526742
688.0,714.7733937006882
692.0,712.2152540743791
696.0,709.7931948875145
700.0,707.4866194730688
704.0,705.2767788411402
708.0,703.147018679436
712.0,701.0829571092813
716.0,699.0725893414532
720.0,697.1063166623757
724.0,695.1768986164079
728.0,693.2793288324149
732.0,691.4106366984533
736.0,689.5696190746255
740.0,687.7565085128745
744.0,685.9725870432973
748.0,684.2197573943203
752.0,682.5000862662029
756.0,680.8153365609242
760.0,679.1665068659296
764.0,677.5533967017058
768.0,675.9742150131831
772.0,674.4252473211227
776.0,672.9005942163903
780.0,671.391990804578
784.0,669.8887134980796
788.0,668.3775773426572
792.0,666.8430239674843
796.0,665.2672973553599
800.0,663.6307020194279
804.0,661.9119359096388
808.0,660.0884885056275
812.0,658.1370930930733
816.0,656.0342211326405
820.0,653.7566058678976
824.0,651.2817818559191
828.0,648.5886269304843
832.0,645.6578932188811
836.0,642.4727142393284
840.0,639.0190758154257
844.0,635.2862395377052
848.0,631.2671087436069
852.0,626.9585284407004
856.0,622.3615122143171
860.0,617.4813908621464
864.0,612.3278792066573
868.0,606.9150592089574
872.0,601.2612791410645
876.0,595.3889701817228
880.0,589.3243833928503
884.0,583.0972515953544
888.0,576.7403821589395
892.0,570.289188115691
896.0,563.7811662780277
900.0,557.2553321633114
904.0,550.7516224623362
908.0,544.3102764907441
912.0,537.9712084890449
916.0,531.773382760358
920.0,525.7542034430911
924.0,519.9489302141767
928.0,514.3901304391644
932.0,509.1071772826068
936.0,504.1258021176647
940.0,499.4677082650842
944.0,495.15025168809564
948.0,491.18619282227496
952.0,487.5835222726727
956.0,484.3453616829887
960.0,481.46993967133403
964.0,478.95064134050676
968.0,476.7761285379296
972.0,474.93052679569223
976.0,473.3936737477088
980.0,472.14142283730234
984.0,471.14599536561786
988.0,470.3763734473531
992.0,469.7987262292701
996.0,469.37686173413306
1000.0,469.0726968662657
1004.0,468.8467384290829
1008.0,468.65856844980294
1012.0,468.4673276665977
1016.0,468.23219167883923
1020.0,467.9128349543665
1024.0,467.46987858385273
1028.0,466.86531831879626
1032.0,466.06292998555057
1036.0,465.0286498151356
1040.0,463.7309275616742
1044.0,462.14105050877185
1048.0,460.23343661091053
1052.0,457.9858951173005
1056.0,455.3798530980084
1060.0,452.40054635769405
1064.0,449.0371733163288
1068.0,445.28301059694815
1072.0,441.1354893133943
1076.0,436.5962314033768
1080.0,431.6710457874771
1084.0,426.3698846101022
1088.0,420.7067602803693
1092.0,414.6996244428761
1096.0,408.3702103576101
1100.0,401.7438404524294
1104.0,394.8492010396726
1108.0,387.71808638936733
1112.0,380.3851145523856
1116.0,372.8874175214664
1120.0,365.2643084744156
1124.0,357.55692894751945
1128.0,349.80787886235464
1132.0,342.06083241321335
1136.0,334.36014293491246
1140.0,326.7504400111382
1144.0,319.2762222404763
1148.0,311.981449231932
1152.0,304.90913653248964
1156.0,298.10095728306294
1160.0,291.59685445323896
1164.0,285.43466752039683
1168.0,279.6497774415822
1172.0,274.2747737304913
1176.0,269.33914740858364
1180.0,264.86901355109563
1184.0,260.8868670794037
1188.0,257.4113753182054
1192.0,254.45721059757872
1196.0,252.03492583366986
1200.0,250.15087559054592
1204.0,248.80718461347618
1208.0,248.00176520909986
1212.0,247.72838411261026
1216.0,247.97677862725826
1220.0,248.73282086272675
1224.0,249.97872786880873
1228.0,251.69331441825562
1232.0,253.8522842123327
1236.0,256.42855442383336
1240.0,259.39260778313405
1244.0,262.7128658633883
1248.0,266.35607683596163
1252.0,270.2877107436732
1256.0,274.4723552667002
1260.0,278.8741050273374
1264.0,283.45693770554493
1268.0,288.1850706477076
1272.0,293.0232922739189
1276.0,297.93726341096175
1280.0,302.8937846338321
1284.0,307.86102670768986
1288.0,312.8087222335216
1292.0,317.708317598972
1296.0,322.53308531395976
1300.0,327.2581977573393
1304.0,331.8607642671504
1308.0,336.3198343590534
1312.0,340.61637061945345
1316.0,344.7331954494454
1320.0,348.6549163226914
1324.0,352.3678345902331
1328.0,355.85984314032623
1332.0,359.1203183893052
1336.0,362.14001210601486
1340.0,364.91094843003765
1344.0,367.4263311216344
1348.0,369.68046558096677
1352.0,371.6686995124088
1356.0,373.3873853158747
1360.0,374.83386639292667
1364.0,376.006488592433
1368.0,376.9046370246884
1372.0,377.528797479013
1376.0,377.88064071493557
1380.0,377.963126986965
1384.0,377.78062733542237
1388.0,377.3390574578186
1392.0,376.64601939483856
1396.0,375.710945840563
1400.0,374.54524160931663
1404.0,373.1624166364291
1408.0,371.578204846359
1412.0,369.81066329974203
1416.0,367.880246245142
1420.0,365.8098490562471
1424.0,363.62481752798726
1428.0,361.35291862427266
1432.0,359.0242694904279
1436.0,356.67122233147484
1440.0,354.3282035887128
1444.0,352.0315067104048
1448.0,349.8190386976069
1452.0,347.7300214993039
1456.0,345.80465022467814
1460.0,344.0837110394104
1464.0,342.6081625257382
1468.0,341.4186852088943
1472.0,340.5552048570126
1476.0,340.05639599917015
1480.0,339.95917283100863
1484.0,340.2981752619035
1488.0,341.10525829046765
1492.0,342.40899317222437
1496.0,344.2341889630777
1500.0,346.60144298467566
1504.0,349.52672856446446
1508.0,353.02102805842725
1512.0,357.09001867566354
1516.0,361.7338180011269
1520.0,366.9467953670996
1524.0,372.7174543669154
1528.0,379.0283908480753
1532.0,385.8563296788682
1536.0,393.1722424663692
1540.0,400.9415472289647
1544.0,409.1243898092544
1548.0,417.6760055701391
1552.0,426.5471586659735
1556.0,435.6846549408262
1560.0,445.0319232964524
1564.0,454.52965921224126
1568.0,464.11652300598354
1572.0,473.729884414755
1576.0,483.3066041656168
1580.0,492.78384241138656
1584.0,502.09988324167693
1588.0,511.19496395655574
1592.0,520.0120974203754
1596.0,528.4978756052782
1600.0,536.6032423943703
1604.0,544.2842238481455
1608.0,551.5026044458459
1612.0,558.2265382941262
1616.0,564.4310849441817
1620.0,570.0986602699588
1624.0,575.2193938277826
1628.0,579.7913852330888
1632.0,583.8208533408108
1636.0,587.3221733873548
1640.0,590.3177987276106
1644.0,592.8380653629101
1648.0,594.9208790871862
1652.0,596.6112867596312
1656.0,597.9609349225741
1660.0,599.0274207009634
1664.0,599.873541621395
1668.0,600.5664526507986
1672.0,601.1767403552883
1676.0,601.7774255961667
1680.0,602.4429075902183
1684.0,603.2478634422707
1688.0,604.2661183819093
1692.0,605.5695028608612
1696.0,607.2267133315335
1700.0,609.3021938668863
1704.0,611.855055761149
1708.0,614.9380518750969
1712.0,618.5966217929661
1716.0,622.8680228831497
1720.0,627.7805611409747
1724.0,633.3529342731807
1728.0,639.5936978904505
1732.0,646.5008639339471
1736.0,654.0616385991982
1740.0,662.2523050575612
1744.0,671.0382542306925
1748.0,680.3741647639347
1752.0,690.2043311864242
1756.0,700.463137053991
1760.0,711.0756676592191
1764.0,721.9584546746637
1768.0,733.0203428896386
1772.0,744.1634670631294
1776.0,755.2843249915148
1780.0,766.2749314243871
1784.0,777.0240366716997
1788.0,787.4183936523599
1792.0,797.3440575505739
1796.0,806.6877029195433
1800.0,815.337943810632
1804.0,823.1866431968441
1808.0,830.1301985358048
1812.0,836.0707907325676
1816.0,840.9175839762072
1820.0,844.5878638999579
1824.0,847.0081012308812
1828.0,848.1149275856761
1832.0,847.8560094951523
1836.0,846.1908064068101
1840.0,843.0911986403482
1844.0,838.5419721831274
1848.0,832.5411487169858
1852.0,825.1001512185412
1856.0,816.2437978163724
1860.0,806.0101193156349
1864.0,794.4499988649657
1868.0,781.6266355348497
1872.0,767.6148369732845
1876.0,752.5001496802987
1880.0,736.3778386838334
1884.0,719.3517314016968
1888.0,701.5329431449318
1892.0,683.0385039804337
1896.0,663.9899084714731
1900.0,644.511611124972
1904.0,624.7294911919303
1908.0,604.7693108245895
1912.0,584.7551905459735
1916.0,564.8081255710197
1920.0,545.0445657305288
1924.0,525.5750805765036
1928.0,506.50312968980495
1932.0,487.92395626256587
1936.0,469.9236196710584
1940.0,452.57817999366233
1944.0,435.95304432067024
1948.0,420.102481366721
1952.0,405.069307495906
1956.0,390.88474397242675
1960.0,377.56844219573856
1964.0,365.1286709739841
1968.0,353.56265761574053
1972.0,342.85707284669576
1976.0,332.98864832411647
1980.0,323.92491477095774
1984.0,315.6250482771585
1988.0,308.0408118405653
1992.0,301.11757856177434
1996.0,294.79542205006135
2000.0,289.01025861958743
2004.0,283.6950248419994
2008.0,278.78087304509916
2012.0,274.1983664759507
2016.0,269.8786551580309
2020.0,265.75461306369795
2024.0,261.7619172230911
2028.0,257.84004995732585
2032.0,253.93320671348704
2036.0,249.99109404176184
2040.0,245.96960492927542
2044.0,241.83136166922412
2048.0,237.5461194364275
2052.0,233.09102670443713
2056.0,228.45074162466275
2060.0,223.61740647917526
2064.0,218.59048521170405
2068.0,213.37647172895342
2072.0,207.98847908277378
2076.0,202.44572175580097
2080.0,196.772905043115
2084.0,190.99953690313353
2088.0,185.15917859492882
2092.0,179.28865091016448
2096.0,173.42721287407346
2100.0,167.6157294841383
2104.0,161.89584443758164
2108.0,156.30917293002634
2112.0,150.8965285238849
2116.0,145.6971967802911
2120.0,140.74826680313566
2124.0,136.08403005753345
2128.0,131.7354538154015
2132.0,127.7297343949605
2136.0,124.08993310746698
2140.0,120.83469565419283
2144.0,117.97805375511632
2148.0,115.52930610575423
2152.0,113.49297437899122
2156.0,111.86882892393828
2160.0,110.65197805502223
2164.0,109.83301434611322
2168.0,109.39821111047151
2172.0,109.32976221810769
2176.0,109.6060585473131
2180.0,110.201994680747
2184.0,111.08929995021725
2188.0,112.23688860014005
2192.0,113.61122462618874
2196.0,115.17669767932894
2200.0,116.89600724101817
2204.0,118.7305530161295
2208.0,120.64083010195789
2212.0,122.58682794079118
2216.0,124.52843235216758
2220.0,126.42583009258021
2224.0,128.2399154323154
2228.0,129.93269820296007
2232.0,131.4677126806071
2236.0,132.81042651790716
2240.0,133.92864867351162
2244.0,134.79293487893523
2248.0,135.37698867082568
2252.0,135.65805549106244
2256.0,135.61730688531995
2260.0,135.24021141984292
2264.0,134.51688855873562
2268.0,133.4424413789794
2272.0,132.01726364375315
2276.0,130.2473164026502
2280.0,128.14436892032145
2284.0,125.72619833268936
2288.0,123.01674201327731
2292.0,120.04619627207904
2296.0,116.85105477728774
2300.0,113.4740800234387
2304.0,109.96420128966804
2308.0,106.37633286291604
2312.0,102.77110685861103
2316.0,99.2145157545527
2320.0,95.7774607531646
2324.0,92.53520330008901
2328.0,89.56671852890044
2332.0,86.95395110029793
2336.0,84.78097586522449
2340.0,83.13306796165725
2344.0,82.0956892813879
2348.0,81.75340065682884
2352.0,82.18871158236678
2356.0,83.48088174956017
2360.0,85.7046910465093
2364.0,88.9291968294443
2368.0,93.21649911075157
2372.0,98.62053574316606
2376.0,105.18593066694945
2380.0,112.94691879925952
2384.0,121.9263711493236
2388.0,132.13494318016527
2392.0,143.5703682414433
2396.0,156.21691602641715
2400.0,170.04503345341755
2404.0,185.01118219150692
2408.0,201.05788339514302
2412.0,218.11397630714453
2416.0,236.09509338632245
2420.0,254.9043505258003
2424.0,274.43324673288953
2428.0,294.56276342775914
2432.0,315.1646494494679
2436.0,336.1028740804324
2440.0,357.2352270179043
2444.0,378.41504131507406
2448.0,399.4930129388754
2452.0,420.31908875635713
2456.0,440.74439344786896
2460.0,460.62316503592785
2464.0,479.8146684047427
2468.0,498.18505635508575
2472.0,515.6091483683242
2476.0,531.9720983076231
2480.0,547.1709237339142
2484.0,561.1158713539513
2488.0,573.7315953675849
2492.0,584.9581281586884
2496.0,594.7516258719772
2500.0,603.0848749099727
2504.0,609.947549227746
2508.0,615.3462124289343
2512.0,619.3040629871282
2516.0,621.8604253474988
2520.0,623.0699941304101
2524.0,623.0018430900197
2528.0,621.7382147997124
2532.0,619.3731111588353
2536.0,616.0107086519895
2540.0,611.7636257503513
2544.0,606.7510728323394
2548.0,601.0969174330901
2552.0,594.927699434945
2556.0,588.3706319262014
2560.0,581.5516238414806
2564.0,574.5933601302941
2568.0,567.6134740721324
2572.0,560.7228444723793
2576.0,554.0240478566785
2580.0,547.6099924787276
2584.0,541.562757041931
2588.0,535.9526526090741
2592.0,530.8375213584276
2596.0,526.2622807796462
2600.0,522.2587167450064
2604.0,518.845523809954
2608.0,516.0285862438301
2612.0,513.8014887457102
2616.0,512.1462415639562
2620.0,511.03420084135416
2624.0,510.4271615888347
2628.0,510.27859791892865
2632.0,510.5350231164483
2636.0,511.1374407485137
2640.0,512.0228572477032
2644.0,513.1258261920775
2648.0,514.3799948260025
2652.0,515.7196241896086
2656.0,517.0810555182983
2660.0,518.4040972941741
2664.0,519.6333094272582
2668.0,520.7191634588461
2672.0,521.6190603551133
2676.0,522.2981903432703
2680.0,522.7302222859994
2684.0,522.8978132447147
2688.0,522.7929321007011
2692.0,522.4169943381344
2696.0,521.7808082982204
2700.0,520.9043363449282
2704.0,519.8162773972409
2708.0,518.5534801379699
2712.0,517.160198863463
2716.0,515.6872063557016
2720.0,514.1907803100687
2724.0,512.7315817164289
2728.0,511.37344514922614
2732.0,510.18210215856766
2736.0,509.22385985781773
2740.0,508.5642573648932
2744.0,508.26672296129266
2748.0,508.39125467142696
2752.0,508.99314643696164
2756.0,510.12178119432576
2760.0,511.8195110015598
2764.0,514.1206429442808
2768.0,517.0505479114647
2772.0,520.6249074947958
2776.0,524.8491122509379
2780.0,529.7178223916874
2784.0,535.2146996482162
2788.0,541.3123166074887
2792.0,547.972247255957
2796.0,555.1453398003066
2800.0,562.7721700761123
2804.0,570.7836710098472
2808.0,579.101930677942
2812.0,587.6411485243581
2816.0,596.3087362757578
2820.0,605.0065470544067
2824.0,613.6322131661724
2828.0,622.0805701072311
2832.0,630.2451416610962
2836.0,638.0196588412169
2840.0,645.2995841876138
2844.0,651.983612720276
2848.0,657.97512165687
2852.0,663.1835426656938
2856.0,667.5256327792565
2860.0,670.9266230046113
2864.0,673.3212270273619
2868.0,674.6544960965867
2872.0,674.8825100149328
2876.0,673.9728979330808
2880.0,671.9051862520782
2884.0,668.6709743892068
2888.0,664.2739424355166
2892.0,658.7296976066843
2896.0,652.0654685576498
2900.0,644.319657936682
2904.0,635.5412641081087
2908.0,625.7891831091789
2912.0,615.1314020150171
2916.0,603.6440952254001
2920.0,591.410635814906
2924.0,578.5205349275284
2928.0,565.0683231388847
2932.0,551.1523886585597
2936.0,536.8737881263872
2940.0,522.3350465093447
2944.0,507.6389631822336
2948.0,492.88744163637244
2952.0,478.1803603666475
2956.0,463.6145022810107
2960.0,449.28255937082145
2964.0,435.27222827255565
2968.0,421.66541068173325
2972.0,408.53753040388955
2976.0,395.956976302955
2980.0,383.98467768825395
2984.0,372.67381584206805
2988.0,362.06967243796674
2992.0,352.20961252471227
2996.0,343.1231965793053
3000.0,334.8324129691273
3004.0,327.35201915745563
3008.0,320.68997727858334
3012.0,314.84796740413225
3016.0,309.8219600036289
3020.0,305.6028278569388
3024.0,302.1769771132325
3028.0,299.52697741604175
3032.0,297.6321720799352
3036.0,296.4692511895197
3040.0,296.0127730754977
3044.0,296.2356226771093
3048.0,297.10939856895857
3052.0,298.6047237452989
3056.0,300.69147856118184
3060.0,303.33895751613994
3064.0,306.5159547915214
3068.0,310.19078651425775
3072.0,314.33126046170696
3076.0,318.9046061534284
3080.0,323.87737975081996
3084.0,329.2153585925059
3088.0,334.883439291583
3092.0,340.84555122433096
3096.0,347.06459455150485
3100.0,353.502409449551
3104.0,360.1197815244067
3108.0,366.8764874201763
3112.0,373.7313840024584
3116.0,380.64254373058316
3120.0,387.5674376919159
3124.0,394.46316626036884
3128.0,401.286735595666
3132.0,407.9953763733791
3136.0,414.5468993568026
3140.0,420.9000807866226
3144.0,427.0150691355562
3148.0,432.8538035860441
3152.0,438.3804336586461
3156.0,443.56172877167216
3160.0,448.36746619437224
3164.0,452.7707859426216
3168.0,456.74850176264744
3172.0,460.2813585443983
3176.0,463.3542282868654
3180.0,465.95623895522147
3184.0,468.08083302380254
3188.0,469.72575502361093
3192.0,470.89296989666246
3196.0,471.58851632753607
3200.0,471.8223013920491
3204.0,471.6078446989271
3208.0,470.96198153236395
3212.0,469.90453518249393
3216.0,468.45796858651016
3220.0,466.64702459696787
3224.0,464.4983627910494
3228.0,462.0401990444798
3232.0,459.30195252019917
3236.0,456.31390361161596
3240.0,453.10686585902505
3244.0,449.7118747786794
3248.0,446.1598966272952
3252.0,442.48156017366205
3256.0,438.7069145295225
3260.0,434.8652160430261
3264.0,430.9847471827638
3268.0,427.09267016778693
3272.0,423.2149176921313
3276.0,419.37612230026497
3280.0,415.5995847518197
3284.0,411.9072802542407
3288.0,408.3199001043858
3292.0,404.8569253960472
3296.0,401.5367291036402
3300.0,398.37670281895845
3304.0,395.3934043244794
3308.0,392.60272179838705
3312.0,390.02004983822275
3316.0,387.6604719255246
3320.0,385.5389436034629
3324.0,383.6704704424478
3328.0,382.0702746560082
3332.0,380.7539439264645
3336.0,379.73755568683333
3340.0,379.03776992960053
3344.0,378.671883696852
3348.0,378.6578408260099
3352.0,379.0141913340348
3356.0,379.759996056717
3360.0,380.9146738146571
3364.0,382.4977903941831
3368.0,384.5287909059411
3372.0,387.02667948391576
3376.0,390.00965266225
3380.0,393.49469495976416
3384.0,397.4971470633222
3388.0,402.0302583941122
3392.0,407.10473664280306
3396.0,412.7283069796385
3400.0,418.905293056994
3404.0,425.6362306805105
3408.0,432.91752325920737
3412.0,440.7411460407013
3416.0,449.09440393442054
3420.0,457.95974570177214
3424.0,467.3146356973356
3428.0,477.13148329336894
3432.0,487.3776295297722
3436.0,498.0153901898615
3440.0,509.0021542045702
3444.0,520.2905359456836
3448.0,531.8285796423011
3452.0,543.5600140051603
3456.0,555.4245553098491
3460.0,567.3582576832273
3464.0,579.2939100498534
3468.0,591.1614799714258
3472.0,602.8886052955963
3476.0,614.4011349928035
3480.0,625.6237207255225
3484.0,636.4804605350486
3488.0,646.8955955354126
3492.0,656.794259656669
3496.0,666.1032812562606
3500.0,674.7520337867707
3504.0,682.6733306359652
3508.0,689.8043567033449
3512.0,696.0876262159019
3516.0,701.4719527285949
3520.0,705.9134133539887
3524.0,709.3762854030749
3528.0,711.8339303612097
3532.0,713.2695979961122
3536.0,713.6771226771178
3540.0,713.061484684261
3544.0,711.4392112526317
3548.0,708.8385951268559
3552.0,705.2997122865838
3556.0,700.8742250722191
3560.0,695.6249620493866
3564.0,689.6252714516917
3568.0,682.958150742475
3572.0,675.7151605318226
3576.0,667.9951366285646
3580.0,659.9027193404374
3584.0,651.5467242137452
3588.0,643.0383830646267
3592.0,634.4894880871665
3596.0,626.0104747231347
3600.0,617.7084807401017
3604.0,609.685419714452
3608.0,602.0361070640691
3612.0,594.8464760816562
3616.0,588.1919201572307
3620.0,582.1357955573027
3624.0,576.7281167306965
3628.0,572.0044731324679
3632.0,567.985193027047
3636.0,564.6747756871575
3640.0,562.0616088607104
3644.0,560.1179833319421
3648.0,558.8004108639403
3652.0,558.0502458082315
3656.0,557.7946042823401
3660.0,557.9475682449657
3664.0,558.4116553929017
3668.0,559.0795299675231
3672.0,559.8359245641338
3676.0,560.5597389507061
3680.0,561.1262786556774
3684.0,561.4095935761652
3688.0,561.2848750035965
3692.0,560.6308682108019
3696.0,559.3322570758233
3700.0,557.2819771460611
3704.0,554.3834141088716
3708.0,550.5524458933087
3712.0,545.7192886763696
3716.0,539.8301100303107
3720.0,532.8483764387298
3724.0,524.7559074331366
3728.0,515.5536144725935
3732.0,505.26190907522545
3736.0,493.9207712877656
3740.0,481.58947613428523
3744.0,468.3459821012851
3748.0,454.28599192607606
3752.0,439.5217019267229
3756.0,424.18026183023574
3760.0,408.40197246759385
3764.0,392.3382536826533
3768.0,376.14941919683264
3772.0,360.00229888176995
3776.0,344.06775186623065
3780.0,328.5181160800229
3784.0,313.524641104731
3788.0,299.2549514091463
3792.0,285.8705860675589
3796.0,273.52465886433214
3800.0,262.3596794027786
3804.0,252.50557169233207
3808.0,244.07792191100222
3812.0,237.17648177791276
3816.0,231.88394831768812
3820.0,228.26503484882232
3824.0,226.3658418941718
3828.0,226.21353051591734
3832.0,227.81629444797667
3836.0,231.16362147167624
3840.0,236.22682890050308
3844.0,242.95985296161916
3848.0,251.30026745099363
3852.0,261.1705034737305
3856.0,272.47923954993917
3860.0,285.1229300332813
3864.0,298.98743969930683
3868.0,313.9497533487988
3872.0,329.8797310001205
3876.0,346.64188136698556
3880.0,364.0971286028182
3884.0,382.10454962303555
3888.0,400.5230616322251
3892.0,419.2130417444053
3896.0,438.0378627588568
3900.0,456.86533121233333
3904.0,475.5690157469966
3908.0,494.02945559779766
3912.0,512.1352406083686
3916.0,529.7839556290938
3920.0,546.882983429198
3924.0,563.3501613569543
3928.0,579.1142879085592
3932.0,594.1154761666912
3936.0,608.3053519124765
3940.0,621.6470954053533
3944.0,634.1153276893375
3948.0,645.6958449807021
3952.0,656.3852081214623
3956.0,666.19019790852
3960.0,675.1271508398972
3964.0,683.2211929706513
3968.0,690.5053918341101
3972.0,697.0198476816186
3976.0,702.8107456929481
3980.0,707.9293904194286
3984.0,712.4312426323908
3988.0,716.3749769986242
3992.0,719.8215766099025
3996.0,722.8334774630267
4000.0,725.4737727918019
4004.0,727.8054840354065
4008.0,729.8909024241517
4012.0,731.791002741332
4016.0,733.5649287617662
4020.0,735.2695481565529
4024.0,736.9590732867416
4028.0,738.6847432823785
4032.0,740.4945621047706
4036.0,742.4330868950519
4040.0,744.5412607883908
4044.0,746.8562844809215
4048.0,749.4115211322265
4052.0,752.236429624377
4056.0,755.35652173262
4060.0,758.7933393463586
4064.0,762.5644484678032
4068.0,766.6834472692146
4072.0,771.159985972454
4076.0,775.9997966960483
4080.0,781.2047316706934
4084.0,786.7728083377249
4088.0,792.6982598115218
4092.0,798.9715890158827
4096.0,805.5796245227953
4100.0,812.5055757727904
4104.0,819.7290849965248
4108.0,827.2262728551669
4112.0,834.9697746480258
4116.0,842.9287639807047
4120.0,851.0689611328115
4124.0,859.3526241037243
4128.0,867.738521547431
4132.0,876.1818886317807
4136.0,884.6343693282141
4140.0,893.0439516625713
4144.0,901.354905708229
4148.0,909.5077370734609
4152.0,917.4391708261418
4156.0,925.0821818794598
4160.0,932.3660877431448
4164.0,939.2167183836943
4168.0,945.5566760402551
4172.0,951.305695491649
4176.0,956.3811126199471
4180.0,960.6984462231571
4184.0,964.1720949156784
4188.0,966.7161476462412
4192.0,968.2453029137897
4196.0,968.6758882713342
4200.0,967.9269683074997
4204.0,965.9215261125819
4208.0,962.5877003729706
4212.0,957.8600577873203
4216.0,951.6808785551632
4220.0,944.0014313325394
4224.0,934.78321331717
4228.0,923.9991310136155
4232.0,911.6345977051517
4236.0,897.6885246757388
4240.0,882.1741847235317
4244.0,865.119928420333
4248.0,846.5697358288179
4252.0,826.5835889214168
4256.0,805.2376526844436
4260.0,782.624255774452
4264.0,758.8516645598087
4268.0,734.0436473723182
4272.0,708.3388287622982
4276.0,681.8898364572741
4280.0,654.8622465407304
4284.0,627.4333350720237
4288.0,599.7906469481235
4292.0,572.1303952561781
4296.0,544.6557066799451
4300.0,517.5747306960625
4304.0,491.0986323134485
4308.0,465.43948995016876
4312.0,440.8081216854121
4316.0,417.41186454981704
4320.0,395.4523327030629
4324.0,375.1231812645202
4328.0,356.60790317766043
4332.0,340.07768677112546
4336.0,325.6893616036417
4340.0,313.5834597253183
4344.0,303.88241863672715
4348.0,296.68895096710037
4352.0,292.08460421775004
4356.0,290.12853182592727
4360.0,290.8564943043255
4364.0,294.28010632004504
4368.0,300.38634232705164
4372.0,309.13730980818536
4376.0,320.470295384624
4380.0,334.2980850989079
4384.0,350.5095561784405
4388.0,368.9705336662389
4392.0,389.52490160312675
4396.0,411.99595508648616
4400.0,436.1879765985524
4404.0,461.8880175261455
4408.0,488.86786379244404
4412.0,516.8861629916961
4416.0,545.6906893380843
4420.0,575.0207220465286
4424.0,604.6095123662765
4428.0,634.186814302796
4432.0,663.4814540207176
4436.0,692.2239129623529
4440.0,720.1488997916027
4444.0,746.997886337956
4448.0,772.52158273452
4452.0,796.4823268966493
4456.0,818.6563633985148
4460.0,838.8359868078968
4464.0,856.8315249005963
4468.0,872.4731381857524
4472.0,885.6124139793358
4476.0,896.1237358135122
4480.0,903.9054120990679
4484.0,908.8805514901176
4488.0,910.9976761797014
4492.0,910.2310682294194
4496.0,906.5808478531818
4500.0,900.0727862228338
4504.0,890.7578588031788
4508.0,878.7115484578129
4512.0,864.0329105773486
4516.0,846.8434151977672
4520.0,827.2855833841809
4524.0,805.5214369459763
4528.0,781.7307817903102
4532.0,756.1093459785814
4536.0,728.8667939446648
4540.0,700.2246384733801
4544.0,670.4140719938578
4548.0,639.6737385604974
4552.0,608.2474676192955
4556.0,576.3819903426063
4560.0,544.324659005222
4564.0,512.321189585334
4568.0,480.6134474911032
4572.0,449.43729599767204
4576.0,419.0205265811941
4580.0,389.58088982285057
4584.0,361.3242449192553
4588.0,334.4428450790641
4592.0,309.11377521405336
4596.0,285.49755735222533
4600.0,263.73693810905917
4604.0,243.95587133942263
4608.0,226.2587077256144
4612.0,210.72960144818606
4616.0,197.4321420802022
4620.0,186.40921728915947
4624.0,177.68310876854537
4628.0,171.25582012961047
4632.0,167.10963142780759
4636.0,165.20787076817933
4640.0,165.49588922342693
4644.0,167.90222130574497
4648.0,172.33990966051468
4652.0,178.70796971170424
4656.0,186.8929679198522
4660.0,196.77068630818286
4664.0,208.20784599896106
4668.0,221.0638634727341
4672.0,235.19261477175087
4676.0,250.4441846165061
4680.0,266.66657922971353
4684.0,283.7073835088666
4688.0,301.41534504291036
4692.0,319.6418693233898
4696.0,338.24241235829527
4700.0,357.07775877742006
4704.0,376.01517542604245
4708.0,394.92943233155313
4712.0,413.70368471342533
4716.0,432.2302113282045
4720.0,450.4110058984891
4724.0,468.15821974596713
4728.0,485.39445515604245
4732.0,502.0529105447705
4736.0,518.077380206443
4740.0,533.4221132574608
4744.0,548.051538297476
4748.0,561.9398622189832
4752.0,575.0705534533787
4756.0,587.435721686857
4760.0,599.0354076450501
4764.0,609.8767978525734
4768.0,619.9733802561146
4772.0,629.3440572338864
4776.0,638.012232837078
4780.0,646.0048911964446
4784.0,653.351682937179
4788.0,660.0840361820622
4792.0,666.2343082550389
4796.0,671.83499347431
4800.0,676.9180013695975
4804.0,681.5140181799383
4808.0,685.6519625117381
4812.0,689.3585435455474
4816.0,692.657927257238
4820.0,695.5715129545063
4824.0,698.1178192542591
4828.0,700.3124756281469
4832.0,702.1683129420841
4836.0,703.6955440937483
4840.0,704.9020239690262
4844.0,705.7935765079736
4848.0,706.3743756644957
4852.0,706.6473664332414
4856.0,706.6147118833371
4860.0,706.2782522420591
4864.0,705.6399624597942
4868.0,704.7023953339292
4872.0,703.469098171481
4876.0,701.9449921204289
4880.0,700.1367046758613
4884.0,698.0528474426113
4888.0,695.7042329784849
4892.0,693.1040264005176
4896.0,690.2678293431986
4900.0,687.2136957490361
4904.0,683.9620808012303
4908.0,680.535726036068
4912.0,676.9594852611547
4916.0,673.2600973201303
4920.0,669.4659129519405
4924.0,665.6065839661109
4928.0,661.7127236800947
4932.0,657.8155480245096
4936.0,653.9465068820936
4940.0,650.1369150469106
4944.0,646.4175916605337
4948.0,642.8185161290029
4952.0,639.3685074029995
4956.0,636.0949321930979
4960.0,633.0234462918097
4964.0,630.1777717848076
4968.0,627.5795116430559
4972.0,625.248002068507
4976.0,623.2002020604947
4980.0,621.4506189653868
4984.0,620.0112682100181
4988.0,618.8916649441818
4992.0,618.0988449055516
4996.0,617.6374114606775
5000.0,617.5096054569271
5004.0,617.7153942602916
5008.0,618.2525762127466
5012.0,619.1168967754817
5016.0,620.3021728310983
5020.0,621.8004219596552
5024.0,623.6019939515859
5028.0,625.6957023704008
5032.0,628.0689546179632
5036.0,630.7078796370974
5040.0,633.5974530335563
5044.0,636.7216199419946
5048.0,640.06341636724
5052.0,643.6050900180371
5056.0,647.3282218538005
5060.0,651.2138497098665
5064.0,655.2425954468845
5068.0,659.3947970578294
5072.0,663.6506470374627
5076.0,667.9903380744651
5080.0,672.394216783116
5084.0,676.8429457612058
5088.0,681.3176737501585
5092.0,685.8002130910669
5096.0,690.2732230270683
5100.0,694.7203967079178
5104.0,699.1266490113214
5108.0,703.4783015102834
5112.0,707.7632601085827
5116.0,711.9711800939489
5120.0,716.093612702211
5124.0,720.124126828282
5128.0,724.058399314748
5132.0,727.8942673043908
5136.0,731.6317364403923
5140.0,735.2729392240745
5144.0,738.8220385991972
5148.0,742.2850728343514
5152.0,745.6697390291281
5156.0,748.9851140812164
5160.0,752.2413137020455
5164.0,755.4490919898459
5168.0,758.6193860585668
5172.0,761.7628121802816
5176.0,764.8891217489147
5180.0,768.0066270599928
5184.0,771.1216084082425
5188.0,774.2377153475974
5192.0,777.3553761403438
5196.0,780.4712304087307
5200.0,783.5776007432856
5204.0,786.6620194775043
5208.0,789.7068269685526
5212.0,792.6888574741976
5216.0,795.5792280349112
5220.0,798.3432446266872
5224.0,800.9404382258322
5228.0,803.3247412920217
5232.0,805.4448125033857
5236.0,807.2445143820875
5240.0,808.6635447941164
5244.0,809.6382192733349
5248.0,810.1023967840451
5252.0,809.9885369849311
5256.0,809.2288724172851
5260.0,807.7566745278676
5264.0,805.5075883836117
5268.0,802.4210077088798
5272.0,798.441459721348
5276.0,793.5199682091671
5280.0,787.6153632926809
5284.0,780.6955072172805
5288.0,772.7384071997651
5292.0,763.7331886759212
5296.0,753.6809051568656
5300.0,742.5951641991651
5304.0,730.5025526656093
5308.0,717.4428484688801
5312.0,703.4690103239678
5316.0,688.6469416341853
5320.0,673.0550294058274
5324.0,656.7834639051794
5328.0,639.9333495167631
5332.0,622.6156218330701
5336.0,604.9497903223573
5340.0,587.0625298922911
5344.0,569.0861481434796
5348.0,551.1569578570176
5352.0,533.413586051134
5356.0,515.995251666738
5360.0,499.04004365754935
5364.0,482.6832301245119
5368.0,467.05562732799376
5372.0,452.2820551047302
5376.0,438.4799025565397
5380.0,425.75782498741904
5384.0,414.2145900388444
5388.0,403.9380878636349
5392.0,395.0045169989077
5396.0,387.47775434259404
5400.0,381.4089143082701
5404.0,376.83609884667845
5408.0,373.78433660345297
5412.0,372.26570605881955
5416.0,372.27963409956635
5420.0,373.8133581479357
5424.0,376.84253676730305
5428.0,381.3319906413441
5432.0,387.2365530540155
5436.0,394.50200656866264
5440.0,403.0660806189481
5444.0,412.85948330113695
5448.0,423.80693992982935
5452.0,435.8282110344732
5456.0,448.8390635861105
5460.0,462.7521714720121
5464.0,477.4779245695282
5468.0,492.9251299956635
5472.0,509.00159386886514
5476.0,525.6145768764856
5480.0,542.671121875054
5484.0,560.0782565338544
5488.0,577.7430785744382
5492.0,595.5727353836777
5496.0,613.4743136255709
5500.0,631.354657898236
5504.0,649.1201404250647
5508.0,666.6764061637319
5512.0,683.9281194781138
5516.0,700.778739562474
5520.0,717.1303520719908
5524.0,732.8835838570159
5528.0,747.9376262816436
5532.0,762.1903902798858
5536.0,775.5388130020683
5540.0,787.8793315687979
5544.0,799.1085340640059
5548.0,809.1239915697302
5552.0,817.8252680531839
5556.0,825.1150976475151
5560.0,830.9007116993993
5564.0,835.0952912466388
5568.0,837.6195147294555
5572.0,838.4031661048462
5576.0,837.3867653377106
5580.0,834.523181486724
5584.0,829.7791881570689
5588.0,823.136921788591
5592.0,814.5952049223107
5596.0,804.1706990887222
5600.0,791.8988551453975
5604.0,777.8346326204296
5608.0,762.052963761163
5612.0,744.648942431323
5616.0,725.7377226524491
5620.0,705.4541163724602
5624.0,683.9518849035915
5628.0,661.4027233576044
5632.0,637.9949422871814
5636.0,613.9318555954508
5640.0,589.429888575183
5644.0,564.7164246561351
5648.0,540.0274140457633
5652.0,515.6047719215836
5656.0,491.69359814805966
5660.0,468.539254611249
5664.0,446.3843401292809
5668.0,425.46560638875394
5672.0,406.01086126405136
5676.0,388.2359079059349
5680.0,372.34156887580605
5684.0,358.5108442456374
5688.0,346.90625104439846
5692.0,337.66738886191433
5696.0,330.90877298222046
5700.0,326.71797225332324
5704.0,325.1540841321002
5708.0,326.246574080568
5712.0,329.99450083053756
5716.0,336.3661430673109
5720.0,345.2990368942244
5724.0,356.7004271106642
5728.0,370.4481289479643
5732.0,386.3917905427557
5736.0,404.35454017239834
5740.0,424.1349962260623
5744.0,445.50961214242966
5748.0,468.2353232296439
5752.0,492.05245753120727
5756.0,516.6878688687333
5760.0,541.858247048749
5764.0,567.2735581090891
5768.0,592.6405664183172
5772.0,617.6663902404673
5776.0,642.0620427095205
5780.0,665.5459107603439
5784.0,687.8471254058763
5788.0,708.7087780385997
5792.0,727.8909394431605
5796.0,745.1734410892918
5800.0,760.3583819920699
5804.0,773.2723288262537
5808.0,783.7681818936493
5812.0,791.7266848273854
5816.0,797.0575614676534
5820.0,799.7002690765934
5824.0,799.6243629024534
5828.0,796.8294729762118
5832.0,791.3448998353967
5836.0,783.2288415189005
5840.0,772.5672695638752
5844.0,759.4724767705281
5848.0,744.081324097514
5852.0,726.5532181179196
5856.0,707.0678538949733
5860.0,685.8227608022297
5864.0,663.0306905792016
5868.0,638.91688764776
5872.0,613.7162813412251
5876.0,587.6706382940848
5880.0,561.0257110782272
5884.0,534.0284166140707
5888.0,506.92407521696055
5892.0,479.95373850279316
5896.0,453.35163182178417
5900.0,427.34273443476997
5904.0,402.14051830130717
5908.0,377.9448641132294
5912.0,354.9401710759826
5916.0,333.2936749058567
5920.0,313.1539865636816
5924.0,294.6498623676002
5928.0,277.8892142958729
5932.0,262.9583674796543
5936.0,249.92157006978348
5940.0,238.82075881039788
5944.0,229.67558171814346
5948.0,222.48367718092658
5952.0,217.22120647811371
5956.0,213.84363409768733
5960.0,212.2867471723951
5964.0,212.467901778481
5968.0,214.2874797507818
5972.0,217.63053524470126
5976.0,222.36860584537638
5980.0,228.36165904667914
5984.0,235.46014193400825
5988.0,243.50710031675195
5992.0,252.34033342007828
5996.0,261.79455125024657
6000.0,271.7035034700829
6004.0,281.90205076274117
6008.0,292.2281520897284
6012.0,302.5247439111975
6016.0,312.64149028126786
6020.0,322.436385685321
6024.0,331.7771954669421
6028.0,340.54272162650017
6032.0,348.6238846130699
6036.0,355.92461445437664
6040.0,362.3625471686008
6044.0,367.8695248747615
6048.0,372.39190036302494
6052.0,375.8906490973641
6056.0,378.34129368879525
6060.0,379.73364778229075
6064.0,380.0713880311924
6068.0,379.37146438690354
6072.0,377.6633603274056
6076.0,374.9882159239942
6080.0,371.39782783347044
6084.0,366.95354140526297
6088.0,361.7250510931782
6092.0,355.7891262501503
6096.0,349.22828016425905
6100.0,342.12940086832054
6104.0,334.5823628192459
6108.0,326.6786389870021
6112.0,318.5099331994418
6116.0,310.16685273008716
6120.0,301.73764104765837
6124.0,293.3069902948915
6128.0,284.9549523024485
6132.0,276.75596562196125
6136.0,268.7780141127925
6140.0,261.08193010329865
6144.0,253.72085218155405
6148.0,246.73984432318176
6152.0,240.1756793699688
6156.0,234.05678588285352
6160.0,228.4033532225555
6164.0,223.2275855868358
6168.0,218.53409197661367
6172.0,214.3203959976996
6176.0,210.5775472759297
6180.0,207.29081520576221
6184.0,204.44044574410552
6188.0,202.0024627819502
6192.0,199.94949692990627
6196.0,198.2516260398924
6200.0,196.87721331100568
6204.0,195.79373036097974
6208.0,194.96855414011318
6212.0,194.3697279250233
6216.0,193.96667780269127
6220.0,193.73087710530623
6224.0,193.63645228640638
6228.0,193.6607247661774
6232.0,193.78468426477522
6236.0,193.99339002328227
6240.0,194.276297063787
6244.0,194.6275053045012
6248.0,195.04593000167114
6252.0,195.53539270651655
6256.0,196.10463272939828
6260.0,196.7672399812702
6264.0,197.54151097512715
6268.0,198.450230672018
6272.0,199.52038372077158
6276.0,200.78279947198007
6280.0,202.2717359652423
6284.0,204.02440891158602
6288.0,206.0804725286712
6292.0,208.48145993509493
6296.0,211.27019165955863
6300.0,214.49016162729242
6304.0,218.18491065208514
6308.0,222.39739784268207
6312.0,227.16938029293647
6316.0,232.5408109074848
6320.0,238.54926324685525
6324.0,245.22939093482893
6328.0,252.61242756748996
6332.0,260.72573137323803
6336.0,269.5923773242475
6340.0,279.2307981620285
6344.0,289.65447489347355
6348.0,300.8716766614864
6352.0,312.88524942822494
6356.0,325.6924526052242
6360.0,339.28484261523323
6364.0,353.6482023606243
6368.0,368.76251567515595
6372.0,384.60198600699766
6376.0,401.1350987693256
6380.0,418.32472695620356
6384.0,436.12827972541305
6388.0,454.4978936733283
6392.0,473.38066645987817
6396.0,492.71893229416423
6400.0,512.4505785721846
6404.0,532.5094026519919
6408.0,552.8255073421622
6412.0,573.325733203632
6416.0,593.9341253131242
6420.0,614.5724317625452
6424.0,635.1606308229574
6428.0,655.6174832913529
6432.0,675.861106038263
6436.0,695.8095622504818
6440.0,715.3814634178342
6444.0,734.4965778231062
6448.0,753.0764401784764
6452.0,771.044957070319
6456.0,788.3290029634529
6460.0,804.8590016256818
6464.0,820.5694879432049
6468.0,835.3996452191615
6472.0,849.2938132169938
6476.0,862.2019624594986
6480.0,874.0801306260971
6484.0,884.8908172799847
6488.0,894.6033335695749
6492.0,903.1941039506171
6496.0,910.6469173228556
6500.0,916.9531252101974
6504.0,922.1117846889338
6508.0,926.1297436959912
6512.0,929.021666220417
6516.0,930.8099948270237
6520.0,931.5248480744991
6524.0,931.2038506875908
6528.0,929.8918947906292
6532.0,927.6408310818169
6536.0,924.5090895313045
6540.0,920.561230032848
6544.0,915.8674244090109
6548.0,910.5028722141175
6552.0,904.5471538492491
6556.0,898.0835255707526
6560.0,891.1981620230929
6564.0,883.9793529469641
6568.0,876.5166616917181
6572.0,868.9000540807123
6576.0,861.2190070203657
6580.0,853.5616069905184
6584.0,846.0136491826132
6588.0,838.6577485410135
6592.0,831.5724743062569
6596.0,824.8315198625658
6600.0,818.5029197416029
6604.0,812.6483254923984
6608.0,807.3223517566926
6612.0,802.5720032705018
6616.0,798.4361926426145
6620.0,794.9453576440276
6624.0,792.1211853914458
6628.0,789.9764492440299
6632.0,788.514962486328
6636.0,787.7316509798943
6640.0,787.6127449750584
6644.0,788.1360882293139
6648.0,789.2715605278596
6652.0,790.9816076934051
6656.0,793.2218712555795
6660.0,795.9419081740751
6664.0,799.0859894193882
6668.0,802.5939648460126
6672.0,806.4021806634735
6676.0,810.4444349265441
6680.0,814.6529558419551
6684.0,818.9593873616875
6688.0,823.2957665416088
6692.0,827.5954774954943
6696.0,831.7941674354219
6700.0,835.8306112139445
6704.0,839.647511936489
6708.0,843.1922265681483
6712.0,846.4174069856829
6716.0,849.2815485794573
6720.0,851.7494402377547
6724.0,853.7925112925295
6728.0,855.389072737021
6732.0,856.52445174672
6736.0,857.1910202657158
6740.0,857.3881201440447
6744.0,857.121888964414
6748.0,856.404992214192
6752.0,855.2562688244805
6756.0,853.7002983331831
6760.0,851.7668990350032
6764.0,849.4905674141352
6768.0,846.9098698561098
6772.0,844.0667980702962
6776.0,841.0060998275177
6780.0,837.7745965578592
6784.0,834.4204990993987
6788.0,830.9927324689313
6792.0,827.5402799543301
6796.0,824.1115560989247
6800.0,820.7538172399795
6804.0,817.5126171595639
6808.0,814.431314119106
6812.0,811.5506341295555
6816.0,808.9082938383156
6820.0,806.5386849791756
6824.0,804.4726209986143
6828.0,802.7371452747225
6832.0,801.3553992932434
6836.0,800.3465482382875
6840.0,799.7257606892429
6844.0,799.5042384836836
6848.0,799.6892922997872
6852.0,800.2844581205251
6856.0,801.2896494547807
6860.0,802.7013399959314
6864.0,804.5127712828322
6868.0,806.7141798776572
6872.0,809.293038581871
6876.0,812.2343062839656
6880.0,815.5206811921557
6884.0,819.1328524640372
6888.0,823.0497455869008
6892.0,827.2487572544799
6896.0,831.7059759070555
6900.0,836.3963845489028
6904.0,841.2940429313535
6908.0,846.3722466855538
6912.0,851.6036614973079
6916.0,856.9604309325413
6920.0,862.4142570475528
6924.0,867.9364534611824
6928.0,873.4979711435743
6932.0,879.0693978101591
6936.0,884.6209325053968
6940.0,890.1223376943733
6944.0,895.5428719148529
6948.0,900.8512067597733
6952.0,906.0153326627275
6956.0,911.0024586368919
6960.0,915.7789117309974
6964.0,920.3100424725588
6968.0,924.5601429569361
6972.0,928.4923845155097
6976.0,932.068782044116
6980.0,935.2501920538062
6984.0,937.9963512691879
6988.0,940.265962102706
6992.0,942.0168305529895
6996.0,943.206061010422
7000.0,943.7903111227047
7004.0,943.7261083125377
7008.0,942.9702277953256
7012.0,941.4801300972707
7016.0,939.214454290697
7020.0,936.1335616892944
7024.0,932.2001237408366
7028.0,927.3797472185151
7032.0,921.6416292468265
7036.0,914.9592339559703
7040.0,907.3109815824063
7044.0,898.6809397028983
7048.0,889.0595051218891
7052.0,878.4440638326939
7056.0,866.8396155269269
7060.0,854.2593484004891
7064.0,840.725149549045
7068.0,826.2680360975969
7072.0,810.9284923920306
7076.0,794.7566991104943
7080.0,777.8126410374426
7084.0,760.1660814850429
7088.0,741.8963929416021
7092.0,723.0922354657448
7096.0,703.8510766123995
7100.0,684.2785492474848
7104.0,664.4876464476575
7108.0,644.5977557453552
7112.0,624.7335382142646
7116.0,605.0236612344685
7120.0,585.5993971612509
7124.0,566.593103474191
7128.0,548.1366032303747
7132.0,530.3594877148694
7136.0,513.3873660011059
7140.0,497.34008862975026
7144.0,482.32997471123605
7148.0,468.46007338075117
7152.0,455.82249161888706
7156.0,444.4968209399638
7160.0,434.54869529605105
7164.0,426.0285117101569
7168.0,418.97034361082706
7172.0,413.3910745816566
7176.0,409.2897772708348
7180.0,406.6473585545425
7184.0,405.4264877533862
7188.0,405.5718198034507
7192.0,407.0105198166665
7196.0,409.65308946756653
7200.0,413.39448918826116
7204.0,418.11554337761476
7208.0,423.6846089656404
7212.0,429.9594810834912
7216.0,436.78950373012367
7220.0,444.0178485411361
7224.0,451.48392107053905
7228.0,459.02585117881256
7232.0,466.48302206162634
7236.0,473.69859126446585
7240.0,480.5219568818548
7244.0,486.81112308803955
7248.0,492.43492111154734
7252.0,497.27504461965094
7256.0,501.2278620941252
7260.0,504.2059730490136
7264.0,506.139479768011
7268.0,506.9769515251886
7272.0,506.68606389240455
7276.0,505.2539016221266
7280.0,502.686919624691
7284.0,499.0105626444737
7288.0,494.2685502992695
7292.0,488.5218401046312
7296.0,481.84728688330017
7300.0,474.33602248177795
7304.0,466.09158490530945
7308.0,457.2278307693352
7312.0,447.8666692947745
7316.0,438.1356599085329
7320.0,428.1655188159138
7324.0,418.0875826347414
7328.0,408.0312792257519
7332.0,398.12165706573563
7336.0,388.47702466949005
7340.0,379.2067504152556
7344.0,370.409270457135
7348.0,362.17034817031185
7352.0,354.56162292415064
7356.0,347.63947919914773
7360.0,341.4442594669987
7364.0,335.99983611550965
7368.0,331.31354926160236
7372.0,327.37650877474044
7376.0,324.16425043079465
7380.0,321.6377280110958
7384.0,319.7446155064807
7388.0,318.42088651678137
7392.0,317.5926315909472
7396.0,317.1780688026058
7400.0,317.0896985136908
7404.0,317.23655027601916
7408.0,317.5264683645015
7412.0,317.8683826595059
7416.0,318.17451348379967
7420.0,318.36246232694765
7424.0,318.3571447853694
7428.0,318.09252715368893
7432.0,317.5131336859573
7436.0,316.5752974611796
7440.0,315.2481339247028
7444.0,313.514222432001
7448.0,311.3699874054169
7452.0,308.8257769529917
7456.0,305.9056429109959
7460.0,302.6468321491366
7464.0,299.0990044892908
7468.0,295.3231976189541
7472.0,291.3905638564507
7476.0,287.38090751662486
7480.0,283.3810549283413
7484.0,279.4830918694744
7488.0,275.7825053070667
7492.0,272.3762678484125
7496.0,269.36090420581
7500.0,266.8305792340265
7504.0,264.87524669676606
7508.0,263.57889684189274
7512.0,263.01793910037003
7516.0,263.2597537450833
7520.0,264.36144310636496
7524.0,266.3688088820205
7528.0,269.3155771568451
7532.0,273.2228869654064
7536.0,278.09905168367567
7540.0,283.93959543824195
7544.0,290.727559436832
7548.0,298.4340660885075
7552.0,307.0191223796055
7556.0,316.4326384347121
7560.0,326.6156326100371
7564.0,337.50159085689296
7568.0,349.01794545479635
7572.0,361.08763653666125
7576.0,373.6307190835462
7580.0,386.56597820505493
7584.0,399.81251648236054
7588.0,413.2912788646872
7592.0,426.9264830032166
7596.0,440.6469259006552
7600.0,454.38714126290597
7604.0,468.0883858624976
7608.0,481.699437456737
7612.0,495.17719124596954
7616.0,508.48704641590547
7620.0,521.6030788970863
7624.0,534.5080010165462
7628.0,547.192913142636
7632.0,559.6568566691573
7636.0,571.906181682146
7640.0,583.9537463296391
7644.0,595.817968195761
7648.0,607.5217507872122
7652.0,619.091310494152
7656.0,630.5549310201213
7660.0,641.9416732498375
7664.0,653.2800688506297
7668.0,664.5968256360044
7672.0,675.9155719251225
7676.0,687.255665867282
7680.0,698.6310940109765
7684.0,710.0494813242686
7688.0,721.5112324620472
7692.0,733.0088213767964
7696.0,744.5262434376342
7700.0,756.038641114669
7704.0,767.5121110588598
7708.0,778.9036971158241
7712.0,790.1615705064737
7716.0,801.2253951359372
7720.0,812.0268727990053
7724.0,822.4904599739747
7728.0,832.5342449695406
7732.0,842.0709714372097
7736.0,851.0091917044124
7740.0,859.2545310355251
7744.0,866.7110417985759
7748.0,873.2826246083193
7752.0,878.8744918346641
7756.0,883.3946474400495
7760.0,886.7553560548868
7764.0,888.8745737254511
7768.0,889.6773130701391
7772.0,889.0969167143395
7776.0,887.0762147674807
7780.0,883.5685446535731
7784.0,878.538614709858
7788.0,871.9631965063962
7792.0,863.8316346618439
7796.0,854.1461668747985
7800.0,842.9220508086725
7804.0,830.187498260535
7808.0,815.9834206622805
7812.0,800.3629933743821
7816.0,783.3910493934321
7820.0,765.1433159518846
7824.0,745.7055099973381
7828.0,725.172310665434
7832.0,703.646228577338
7836.0,681.236393078432
7840.0,658.0572793768393
7844.0,634.2273979388996
7848.0,609.8679684665749
7852.0,585.1016003403854
7856.0,560.051000584981
7860.0,534.8377292294953
7864.0,509.581020423881
7868.0,484.3966858763716
7872.0,459.39611514788487
7876.0,434.68538514447783
7880.0,410.36448886839867
7884.0,386.5266911890744
7888.0,363.25801710948883
7892.0,340.63687573259296
7896.0,318.7338208707396
7900.0,297.6114469891042
7904.0,277.3244169398144
7908.0,257.91961574182847
7912.0,239.4364225122851
7916.0,221.9070905800165
7920.0,205.35722383392937
7924.0,189.80633550501176
7928.0,175.2684738870104
7932.0,161.75289801469864
7936.0,149.26478509779938
7940.0,137.80595061997383
7944.0,127.37556153191201
7948.0,117.97082298099487
7952.0,109.5876196223302
7956.0,102.22109384671565
7960.0,95.86614531071916
7964.0,90.51783892660244
7968.0,86.17171177175761
7972.0,82.82397293511762
7976.0,80.47159391979942
7980.0,79.11229074881098
7984.0,78.74440227594279
7988.0,79.36667227798272
7992.0,80.97794561104351
7996.0,83.57679101034464
8000.0,87.16106499039057
8004.0,91.72743276601754
8008.0,97.2708631570122
8012.0,103.78411503092912
8016.0,111.25723295079393
8020.0,119.67706931839713
8024.0,129.02684945181613
8028.0,139.285794732786
8032.0,150.42881724540052
8036.0,162.42629725804
8040.0,175.24395254270337
8044.0,188.84280595359948
8048.0,203.17925497457801
8052.0,218.20524416528622
8056.0,233.86853866106765
8060.0,250.11309418744497
8064.0,266.8795165142752
8068.0,284.1056009697902
8072.0,301.72694062252333
8076.0,319.6775900649375
8080.0,337.89077041329745
8084.0,356.29960015755347
8088.0,374.8378358233275
8092.0,393.4406060325197
8096.0,412.04512247835385
8100.0,430.59135157945633
8104.0,449.02263115385546
8108.0,467.286217357488
8112.0,485.33374835534494
8116.0,503.1216127223658
8120.0,520.6112123863923
8124.0,537.769112004839
8128.0,554.5670689841861
8132.0,570.981940874235
8136.0,586.995469556515
8140.0,602.5939444497991
8144.0,617.7677498205097
8148.0,632.5108041527318
8152.0,646.8199023401112
8156.0,660.6939741477656
8160.0,674.1332748944443
8164.0,687.1385265625769
8168.0,699.7100294967955
8172.0,711.8467664417756
8176.0,723.5455218424325
8180.0,734.8000400333354
8184.0,745.6002461368383
8188.0,755.9315531370692
8192.0,765.7742776737553
8196.0,775.1031855862217
8200.0,783.8871861236113
8204.0,792.0891910311739
8208.0,799.6661514575766
8212.0,806.5692818541144
8216.0,812.7444758058954
8220.0,818.1329141012124
8224.0,822.6718603737602
8228.0,826.295634431368
8232.0,828.9367480490057
8236.0,830.5271827851429
8240.0,830.9997846290012
8244.0,830.2897463746787
8248.0,828.336145787506
8252.0,825.0835059256583
8256.0,820.4833433230682
8260.0,814.4956700004428
8264.0,807.0904163203214
8268.0,798.2487434190051
8272.0,787.9642162222349
8276.0,776.2438107821789
8280.0,763.1087327708151
8284.0,748.595027349919
8288.0,732.7539642413949
8292.0,715.652185584647
8296.0,697.371608042481
8300.0,678.0090745681844
8304.0,657.675755249542
8308.0,636.4963006817034
8312.0,614.6077553676655
8316.0,592.1582426698179
8320.0,569.3054367942447
8324.0,546.2148411289115
8328.0,523.0578959211052
8332.0,500.0099417126318
8336.0,477.2480681004007
8340.0,454.9488802057646
8344.0,433.2862176735284
8348.0,412.42886304259486
8352.0,392.5382778969518
8356.0,373.7664062519461
8360.0,356.25358501548016
8364.0,340.12660086548266
8368.0,325.4969312934166
8372.0,312.45920480395125
8376.0,301.0899114244274
8380.0,291.4463899485009
8384.0,283.5661129143966
8388.0,277.4662843803872
8392.0,273.14375927090583
8396.0,270.57528657714647
8400.0,269.71807215204353
8404.0,270.5106503831648
8408.0,272.8740477951253
8412.0,276.7132157602087
8416.0,281.9187041209696
8420.0,288.36854280028956
8424.0,295.93029455166464
8428.0,304.4632390530303
8432.0,313.8206467403324
8436.0,323.85210024647415
8440.0,334.4058220692707
8444.0,345.3309689539626
8448.0,356.47985610978077
8452.0,367.71007746079147
8456.0,378.886491446361
8460.0,389.8830453267158
8464.0,400.5844144546221
8468.0,410.8874365044583
8472.0,420.7023241744708
8476.0,429.95364337485603
8480.0,438.58104736882433
8484.0,446.5397607378056
8488.0,453.8008103937488
8492.0,460.3510041644958
8496.0,466.1926607365782
8500.0,471.3430979522639
8504.0,475.83388961295793
8508.0,479.7099040151158
8512.0,483.0281404016039
8516.0,485.8563823085532
8520.0,488.2716893835882
8524.0,490.35875160800174
8528.0,492.20813193726786
8532.0,493.9144251446277
8536.0,495.5743620710849
8540.0,497.2848895059328
8544.0,499.14125649214355
8548.0,501.23513790911056
8552.0,503.652825658163
8556.0,506.4735165831736
8560.0,509.7677243447879
8564.0,513.5958398741421
8568.0,518.0068619467457
8572.0,523.0373161129012
8576.0,528.7103769279735
8580.0,535.035205257745
8584.0,542.0065094145305
8588.0,549.604335995825
8592.0,557.7940935271087
8596.0,566.5268093292003
8600.0,575.7396174111044
8604.0,585.3564726022666
8608.0,595.2890835551686
8612.0,605.4380546465136
8616.0,615.6942241639622
8620.0,625.9401834697684
8624.0,636.0519590710779
8628.0,645.9008366940573
8632.0,655.3553035589603
8636.0,664.2830821040548
8640.0,672.5532254707315
8644.0,680.0382423078198
8648.0,686.6162161760623
8652.0,692.1728833618565
8656.0,696.6036324471618
8660.0,699.8153895513607
8664.0,701.7283546615796
8668.0,702.2775567613604
8672.0,701.4141984148426
8676.0,699.1067639401977
8680.0,695.3418692051229
8684.0,690.1248353068333
8688.0,683.4799728786865
8692.0,675.4505684244881
8696.0,666.0985688572302
8700.0,655.503965257357
8704.0,643.763881721323
8708.0,630.9913800054442
8712.0,617.3139954451556
8716.0,602.8720243032327
8720.0,587.8165872223789
8724.0,572.3074977724634
8728.0,556.5109691291824
8732.0,540.5971956074243
8736.0,524.7378489276633
8740.0,509.10353145842606
8744.0,493.8612300105898
8748.0,479.1718139759248
8752.0,465.1876208014819
8756.0,452.0501701590092
8760.0,439.88804588366844
8764.0,428.8149819597064
8768.0,418.92818562691855
8772.0,410.3069271443195
8776.0,403.0114219219485
8780.0,397.0820266322005
8784.0,392.5387665042658
8788.0,389.3812061873952
8792.0,387.58867119077985
8796.0,387.120820846508
8800.0,387.91856697569693
8804.0,389.90532506176726
8808.0,392.98857694819054
8812.0,397.06171620524424
8816.0,402.006139811069
8820.0,407.69354316449414
8824.0,413.98837006795304
8828.0,420.75036538201056
8832.0,427.8371756367109
8836.0,435.1069420388724
8840.0,442.42083107587365
8844.0,449.64545025499973
8848.0,456.65510027580035
8852.0,463.3338198463465
8856.0,469.5771851419644
8860.0,475.29383233853997
8864.0,480.40667855598645
8868.0,484.853823777408
8872.0,488.5891237482366
8876.0,491.5824314087839
8880.0,493.819511971921
8884.0,495.3016441778924
8888.0,496.0449272891602
8892.0,496.07931966640064
8896.0,495.44743993552964
8900.0,494.2031656295873
8904.0,492.4100667968147
8908.0,490.13971355331824
8912.0,487.4698970837204
8916.0,484.4828032848634
8920.0,481.2631772023989
8924.0,477.8965146960983
8928.0,474.46731542696244
8932.0,471.0574283034899
8936.0,467.7445169817763
8940.0,464.60066899872936
8944.0,461.69116788501316
8948.0,459.07344348016284
8952.0,456.7962118991789
8956.0,454.89881325776594
8960.0,453.41075231261425
8964.0,452.3514445262465
8968.0,451.7301676208032
8972.0,451.54621633188367
8976.0,451.78925569741284
8980.0,452.4398657055216
8984.0,453.47026739798514
8988.0,454.84521756370293
8992.0,456.5230559925939
8996.0,458.45688593008384
9000.0,460.5958649265089
9004.0,462.88657985696295
9008.0,465.27447676152843
9012.0,467.7053136351002
9016.0,470.12660261507045
9020.0,472.4890072814999
9024.0,474.747661039907
9028.0,476.86337384559806
9032.0,478.803696870219
9036.0,480.543818044509
9040.0,482.06726560413745
9044.0,483.3664016779381
9048.0,484.4426934736233
9052.0,485.3067555733078
9056.0,485.9781629473512
9060.0,486.48504018115307
9064.0,486.8634379356085
9068.0,487.1565129262688
9072.0,487.4135328193981
9076.0,487.688732301892
9080.0,488.040050830613
9084.0,488.5277856919312
9088.0,489.2131955329792
9092.0,490.15708928184347
9096.0,491.4184335717514
9100.0,493.0530088902123
9104.0,495.1121411726895
9108.0,497.6415318830471
9112.0,500.68020617267183
9116.0,504.25959575655236
9120.0,508.4027706575164
9124.0,513.1238316726445
9128.0,518.4274730392195
9132.0,524.3087222178492
9136.0,530.752860990365
9140.0,537.735529246622
9144.0,545.2230099562149
9148.0,553.1726909226028
9152.0,561.5336960184461
9156.0,570.2476757103786
9160.0,579.2497437982579
9164.0,588.4695444152088
9168.0,597.8324304859548
9172.0,607.2607321388701
9176.0,616.675091247795
9180.0,625.9958366073345
9184.0,635.1443733547154
9188.0,644.0445600615058
9192.0,652.6240471925662
9196.0,660.8155511595124
9200.0,668.5580389767408
9204.0,675.7977997128254
9208.0,682.4893806109496
9212.0,688.5963678825581
9216.0,694.0919947230327
9220.0,698.9595621351249
9224.0,703.1926617610839
9228.0,706.7951940568845
9232.0,709.7811795806099
9236.0,712.174365673582
9240.0,714.0076352092115
9244.0,715.3222282412278
9248.0,716.1667911807325
9252.0,716.5962714803311
9256.0,716.6706787307052
9260.0,716.453735769799
9264.0,716.0114460679796
9268.0,715.4106062451536
9272.0,714.7172947661203
9276.0,713.9953692260146
9280.0,713.3050048871816
9284.0,712.7013062022455
9288.0,712.2330211305238
9292.0,711.9413854438063
9296.0,711.85912122998
9300.0,712.0096106469058
9304.0,712.4062627816683
9308.0,713.0520882928479
9312.0,713.9394932799019
9316.0,715.0503002763122
9320.0,716.3560001155923
9324.0,717.8182336131443
9328.0,719.3894967662745
9332.0,721.0140578106287
9336.0,722.6290692068844
9340.0,724.1658525938122
9344.0,725.5513300266161
9348.0,726.7095705169734
9352.0,727.5634171082011
9356.0,728.0361565964546
9360.0,728.0531917749836
9364.0,727.5436750669862
9368.0,726.4420629745262
9372.0,724.6895531093364
9376.0,722.2353696127323
9380.0,719.0378681581203
9384.0,715.0654379417336
9388.0,710.2971846087461
9392.0,704.723384574794
9396.0,698.3457074635932
9400.0,691.1772092266549
9404.0,683.2421037830394
9408.0,674.5753256038153
9412.0,665.2218995998185
9416.0,655.2361381050065
9420.0,644.6806877564225
9424.0,633.6254515124741
9428.0,622.1464126679813
9432.0,610.3243883657215
9436.0,598.243739809335
9440.0,585.9910653118762
9444.0,573.6539006548104
9448.0,561.3194491518209
9452.0,549.0733614512033
9456.0,536.9985825875879
9460.0,525.174281208144
9464.0,513.674873334626
9468.0,502.5691505485729
9472.0,491.91952015124843
9476.0,481.78136267998997
9480.0,472.2025101675091
9484.0,463.222846707642
9488.0,454.8740312326005
9492.0,447.1793409049239
9496.0,440.1536321739098
9500.0,433.80341533054434
9504.0,428.12703730016324
9508.0,423.1149664133329
9512.0,418.7501719626832
9516.0,415.00859045999994
9520.0,411.85966963747416
9524.0,409.26698038422535
9528.0,407.1888859783815
9532.0,405.5792571811914
9536.0,404.38822103082657
9540.0,403.56293055092226
9544.0,403.0483421266765
9548.0,402.78798706712865
9552.0,402.72472394822626
9556.0,402.8014588093221
9560.0,402.96182122489313
9564.0,403.1507856788233
9568.0,403.31522942271505
9572.0,403.4044199989834
9576.0,403.3704278385151
9580.0,403.1684618185669
9584.0,402.75712833862303
9588.0,402.09861721327604
9592.0,401.15882034135234
9596.0,399.9073915456144
9600.0,398.3177580536494
9604.0,396.3670956868309
9608.0,394.03628083307785
9612.0,391.30983259626163
9616.0,388.1758580303605
9620.0,384.6260119988333
9624.0,380.6554809941451
9628.0,376.262997453234
9632.0,371.4508880846737
9636.0,366.2251568079231
9640.0,360.595600266083
9644.0,354.57595154814805
9648.0,348.18404570759975
9652.0,341.44199884049993
9656.0,334.3763908921802
9660.0,327.01844107884534
9664.0,319.4041639386699
9668.0,311.57449361572407
9672.0,303.57536402212224
9676.0,295.45773298622936
9680.0,287.27753934037
9684.0,279.0955830940368
9688.0,270.97732034168894
9692.0,262.99256632755333
9696.0,255.21510208707215
9700.0,247.72218225505603
9704.0,240.59394392075183
9708.0,233.91271876349398
9712.0,227.76225306284493
9716.0,222.22684249406925
9720.0,217.39039085178842
9724.0,213.33540395253104
9728.0,210.14193190604573
9732.0,207.8864746573056
9736.0,206.6408671048986
9740.0,206.4711610951884
9744.0,207.4365220791385
9748.0,209.58815815319562
9752.0,212.96829862259833
9756.0,217.60923823990953
9760.0,223.53246204825643
9764.0,230.7478644872109
9768.0,239.25307529053842
9772.0,249.0329038478261
9776.0,260.05891309674763
9780.0,272.2891334962152
9784.0,285.6679270172586
9788.0,300.1260102720441
9792.0,315.5806448458618
9796.0,331.93600158132307
9800.0,349.0837039624802
9804.0,366.90355383714586
9808.0,385.26444048653514
9812.0,404.02543149795815
9816.0,423.03704102153023
9820.0,442.1426678104226
9824.0,461.1801919815146
9828.0,479.98371571777216
9832.0,498.38542919644283
9836.0,516.2175789377344
9840.0,533.3145117090742
9844.0,549.514763418946
9848.0,564.6631594759018
9852.0,578.6128911625289
9856.0,591.2275318014124
9860.0,602.3829568287337
9864.0,611.9691331767491
9868.0,619.8917453924798
9872.0,626.0736285322888
9876.0,630.4559809969459
9880.0,632.9993340706972
9884.0,633.6842589520134
9888.0,632.5117964488978
9892.0,629.5035991915518
9896.0,624.7017811300274
9900.0,618.16847418145
9904.0,609.9850971114894
9908.0,600.2513469863871
9912.0,589.0839286837007
9916.0,576.6150428593329
9920.0,562.9906573116504
9924.0,548.3685907571753
9928.0,532.9164415358472
9932.0,516.8093965891914
9936.0,500.22795810967705
9940.0,483.3556265011436
9944.0,466.3765786938357
9948.0,449.47338035009926
9952.0,432.8247689890514
9956.0,416.60354256734377
9960.0,400.9745847471945
9964.0,386.0930542095289
9968.0,372.10276117048215
9972.0,359.13474993753067
9976.0,347.3061020679431
9980.0,336.71897060885834
9984.0,327.4598520944058
9988.0,319.59909944856275
9992.0,313.1906756013848
9996.0,308.2721443555139
10000.0,304.8648917669863
10004.0,302.9745680135242
10008.0,302.5917364360064
10012.0,303.6927131979894
10016.0,306.24057787733227
10020.0,310.1863323702464
10024.0,315.4701828656039
10028.0,322.0229174770985
10032.0,329.7673505676206
10036.0,338.61980404364556
10040.0,348.49159609221016
10044.0,359.29050901479303
10048.0,370.92220981773687
10052.0,383.2915997415758
10056.0,396.30407167109684
10060.0,409.86665721598393
10064.0,423.889048151015
10068.0,438.28447986931036
10072.0,452.9704675607771
10076.0,467.86938899116313
10080.0,482.90891099729583
10084.0,498.0222600802707
10088.0,513.1483407220383
10092.0,528.2317082283992
10096.0,543.2224059620768
10100.0,558.075679707532
10104.0,572.7515845203673
10108.0,587.2145016634228
10112.0,601.4325850389105
10116.0,615.3771578467805
10120.0,629.022081012375
10124.0,642.3431152029141
10128.0,655.3172979456275
10132.0,667.9223564199045
10136.0,680.1361748903955
10140.0,691.9363334654648
10144.0,703.299731903936
10148.0,714.2023086169314
10152.0,724.6188610433138
10156.0,734.5229695673042
10160.0,743.887023405214
10164.0,752.682343566654
10168.0,760.8793951145917
10172.0,768.4480784783892
10176.0,775.3580875037638
10180.0,781.5793203253303
10184.0,787.0823281893404
10188.0,791.8387872129355
10192.0,795.8219788081384
10196.0,799.0072660311585
10200.0,801.3725551855517
10204.0,802.8987342238216
10208.0,803.5700814619465
10212.0,803.3746396122665
10216.0,802.304551129065
10220.0,800.3563514462097
10224.0,797.5312169888228
10228.0,793.8351649685129
10232.0,789.2792020158515
10236.0,783.8794187423101
10240.0,777.6570274192579
10244.0,770.6383401587386
10248.0,762.8546853072236
10252.0,754.3422602334063
10256.0,745.1419193094655
10260.0,735.2988966515077
10264.0,724.8624640940294
10268.0,713.8855259157572
10272.0,702.4241529955195
10276.0,690.5370603350253
10280.0,678.2850332094541
10284.0,665.7303085534497
10288.0,652.9359195064167
10292.0,639.9650122823106
10296.0,626.8801456839951
10300.0,613.7425846648939
10304.0,600.6116003412566
10308.0,587.5437896996638
10312.0,574.5924287903711
10316.0,561.8068733090527
10320.0,549.2320200639814
10324.0,536.9078418910291
10328.0,524.8690071524532
10332.0,513.1445930965617
10336.0,501.757900132499
10340.0,490.72637156142866
10344.0,480.0616205813063
10348.0,469.76956353425635
10352.0,459.85065549178637
10356.0,450.30022148467054
10360.0,441.1088741031498
10364.0,432.2630059500198
10368.0,423.7453436639185
10372.0,415.53554908976344
10376.0,407.61085280116055
10380.0,399.94670566786584
10384.0,392.5174354520164
10388.0,385.29689722602023
10392.0,378.25910829022666
10396.0,371.37885981029046
10400.0,364.63229833905365
10404.0,357.99747070378305
10408.0,351.4548256131232
10412.0,344.9876650779602
10416.0,338.5825386117421
10420.0,332.2295733065604
10424.0,325.92273329493077
10428.0,319.660002789824
10432.0,313.4434878254715
10436.0,307.2794329714626
10440.0,301.17815062880874
10444.0,295.1538620014023
10448.0,289.2244504323593
10452.0,283.41112946743095
10456.0,277.73802972455604
10460.0,272.2317103772309
10464.0,266.9206027646844
10468.0,261.8343952851655
10472.0,257.00337026819466
10476.0,252.4577049141717
10480.0,248.2267495930123
10484.0,244.33829776962656
10488.0,240.81786254539813
10492.0,237.68797525676828
10496.0,234.96752173687466
10500.0,232.67113167247555
10504.0,230.80863588677255
10508.0,229.38460526864512
10512.0,228.39798343828795
10516.0,227.8418231648221
10520.0,227.70313416319894
10524.0,227.9628473230402
10528.0,228.59589775518458
10532.0,229.57142635071193
10536.0,230.85309689185686
10540.0,232.39952319458365
10544.0,234.1647983593536
10548.0,236.09911601824217
10552.0,238.14947154492128
10556.0,240.2604295807196
10560.0,242.37494295595084
10564.0,244.43520717280666
10568.0,246.3835340772253
10572.0,248.16322818422123
10576.0,249.7194493241796
10580.0,251.0000458261747
10584.0,251.95634331957993
10588.0,252.5438753809746
10592.0,252.72304363811807
10596.0,252.45969652255732
10600.0,251.72561759338382
10604.0,250.49891619469818
10608.0,248.76431511902902
10612.0,246.51333189137043
10616.0,243.74435222890733
10620.0,240.46259613726423
10624.0,236.679978945115
10628.0,232.41487132817082
10632.0,227.69176400705604
10636.0,222.54084430030105
10640.0,216.99749305478292
10644.0,211.10171164500582
10648.0,204.8974897156274
10652.0,198.43212512648597
10656.0,191.7555081355652
10660.0,184.91938221520792
10664.0,177.97659403696542
10668.0,170.9803450817496
10672.0,163.98345703996722
10676.0,157.03766267085865
10680.0,150.19293310390114
10684.0,143.49685170038975
10688.0,136.99404356203175
10692.0,130.72566858978885
10696.0,124.72898467969188
10700.0,119.03698621730929
10704.0,113.67812152648825
10708.0,108.67609137085283
10712.0,104.04972903075026
10716.0,99.81296091829813
10720.0,95.9748451844816
10724.0,92.53968435112492
10728.0,89.50720670334495
10732.0,86.87281003956964
10736.0,84.62786042676393
10740.0,82.76003787088911
10744.0,81.2537202996853
10748.0,80.09039696919935
10752.0,79.2491023408122
10756.0,78.70686161899847
10760.0,78.43913947414038
10764.0,78.42028397768199
10768.0,78.62395842241527
10772.0,79.02355445816866
10776.0,79.59258080939043
10780.0,80.30502272237464
10784.0,81.13566818502389
10788.0,82.06039784585487
10792.0,83.0564364134978
10796.0,84.10256413108435
10800.0,85.1792876830117
10804.0,86.26897059814732
10808.0,87.35592385883697
10812.0,88.42645800537423
10816.0,89.46889853733796
10820.0,90.47356685373094
10824.0,91.43272934396708
10828.0,92.3405175468227
10832.0,93.19282254163
10836.0,93.98716693079713
10840.0,94.72255791880957
10844.0,95.39932509308495
10848.0,96.01894656874077
10852.0,96.5838671741121
10856.0,97.0973123285697
10860.0,97.56310120208462
10864.0,97.98546265155875
10868.0,98.36885730675426
10872.0,98.71780903224558
10876.0,99.03674882299191
10880.0,99.32987399927607
10884.0,99.60102534950025
10888.0,99.85358462535268
10892.0,100.09039452469025
10896.0,100.31370300308637
10900.0,100.52513342482885
10904.0,100.72568167437912
10908.0,100.91574087472519
10912.0,101.0951537908328
10916.0,101.26329234807105
10920.0,101.41916299485501
10924.0,101.56153591733064
10928.0,101.68909540138822
10932.0,101.80060795972756
10936.0,101.89510422179879
10940.0,101.97207004191048
10944.0,102.03164183219059
10948.0,102.07480078567711
10952.0,102.10356043105133
10956.0,102.12114186235415
10960.0,102.13213101983682
10964.0,102.14261256479274
10968.0,102.16027519220815
10972.0,102.19448365792235
10976.0,102.25631335617066
10980.0,102.35854396089537
10984.0,102.51560943064067
10988.0,102.74350256172568
10992.0,103.05963324514457
10996.0,103.482640622573
11000.0,104.03216042339201
11004.0,104.72854986994619
11008.0,105.59257363325007
11012.0,106.64505538012874
11016.0,107.90650045396251
11020.0,109.39669615645381
11024.0,111.13429692892342
11028.0,113.13640244676156
11032.0,115.4181372128846
11036.0,117.99224063675919
11040.0,120.86867678997702
11044.0,124.05427301985773
11048.0,127.5523963697978
11052.0,131.36267629896932
11056.0,135.48078152354267
11060.0,139.89825793300093
11064.0,144.6024334890966
11068.0,149.57639481566883
11072.0,154.79903886194393
11076.0,160.24520159919157
11080.0,165.88586422005818
11084.0,171.68843577931872
11088.0,177.61710966972967
11092.0,183.6332897905837
11096.0,189.69608076086206
11100.0,195.7628350755254
11104.0,201.78974873319768
11108.0,207.73249562312995
11112.0,213.5468899058729
11116.0,219.18956480529005
11120.0,224.61865567993408
11124.0,229.79447497194016
11128.0,234.6801666427038
11132.0,239.24232799140935
11136.0,243.4515873047035
11140.0,247.28312658822173
11144.0,250.71713966291932
11148.0,253.73921714657232
11152.0,256.3406512550807
11156.0,258.5186549171674
11160.0,260.2764913635755
11164.0,261.6235120882095
11168.0,262.57510284145474
11172.0,263.15253906133574
11176.0,263.38275383291347
11180.0,263.29802304929234
11184.0,262.9355738907934
11188.0,262.33712400662193
11192.0,261.54835984162173
11196.0,260.61836336817464
11200.0,259.5989970359994
11204.0,258.54425703205436
11208.0,257.50960496741845
11212.0,256.5512879271313
11216.0,255.7256564947549
11220.0,255.0884899415977
11224.0,254.6943372675571
11228.0,254.59588219458243
11232.0,254.8433395409388
11236.0,255.48388964705626
11240.0,256.56115669176086
11244.0,258.1147358478232
11248.0,260.17977329938714
11252.0,262.7866022041803
11256.0,265.96043675222745
11260.0,269.72112556887765
11264.0,274.08296485002086
11268.0,279.05457081750546
11272.0,284.638810357941
11276.0,290.8327880696912
11280.0,297.6278873974371
11284.0,305.0098630834888
11288.0,312.95898181007004
11292.0,321.4502076464682
11296.0,330.4534287477877
11300.0,339.93372167394017
11304.0,349.8516497004891
11308.0,360.16359156634485
11312.0,370.8220972354149
11316.0,381.77626742829204
11320.0,392.97215389327994
11324.0,404.3531776197287
11328.0,415.86056243644225
11332.0,427.4337816696175
11336.0,439.0110157448289
11340.0,450.52961879336124
11344.0,461.926592453357
11348.0,473.13906513050205
11352.0,484.10477499162073
11356.0,494.76255489856317
11360.0,505.0528173420138
11364.0,514.9180372023958
11368.0,524.3032298506188
11372.0,533.1564217137646
11376.0,541.4291099844277
11380.0,549.0767076677723
11384.0,556.0589696642181
11388.0,562.3403951108148
11392.0,567.8906007886167
11396.0,572.6846600878084
11400.0,576.7034018500549
11404.0,579.9336634209992
11408.0,582.3684924808783
11412.0,584.0072926929956
11416.0,584.8559088983654
11420.0,584.9266484394738
11424.0,584.2382361595941
11428.0,582.8157016523169
11432.0,580.6901983986915
11436.0,577.8987555034812
11440.0,574.4839638074714
11444.0,570.4935991911892
11448.0,565.9801868790388
11452.0,561.0005114839281
11456.0,555.6150783840131
11460.0,549.8875327809636
11464.0,543.8840434423624
11468.0,537.6726586708935
11472.0,531.3226424617749
11476.0,524.9037990998949
11480.0,518.4857946036607
11484.0,512.1374834414618
11488.0,505.92624883082954
11492.0,499.91736468515626
11496.0,494.17338690421985
11500.0,488.7535812178809
11504.0,483.7133941928764
11508.0,479.10397330988127
11512.0,474.9717412255984
11516.0,471.3580284693479
11520.0,468.2987679040563
11524.0,465.8242533271814
11528.0,463.9589636177219
11532.0,462.7214528706661
11536.0,462.12430601930436
11540.0,462.174158547442
11544.0,462.8717780547653
11548.0,464.21220467370415
11552.0,466.18494665646926
11556.0,468.7742268659066
11560.0,471.95927542200843
11564.0,475.71466338479127
11568.0,480.01067209906614
11572.0,484.81369268971827
11576.0,490.0866501769302
11580.0,495.78944677587896
11584.0,501.8794191482493
11588.0,508.31180467340397
11592.0,515.0402121903783
11596.0,522.0170931080746
11600.0,529.1942092664785
11604.0,536.5230944311418
11608.0,543.955506790677
11612.0,551.4438702769824
11616.0,558.9417029163855
11620.0,566.4040307248396
11624.0,573.7877858606428
11628.0,581.052187823997
11632.0,588.1591064256745
11636.0,595.0734050181159
11640.0,601.7632620680494
11644.0,608.2004685226719
11648.0,614.3606975625972
11652.0,620.2237422636117
11656.0,625.773715502097
11660.0,630.9992053237958
11664.0,635.8933781998525
11668.0,640.4540223603259
11672.0,644.6835239047214
11676.0,648.5887697269585
11680.0,652.1809734170687
11684.0,655.4754230148097
11688.0,658.4911524557567
11692.0,661.2505414068435
11696.0,663.7788506800662
11700.0,666.103702434776
11704.0,668.2545159251745
11708.0,670.2619106491123
11712.0,672.1570894385078
11716.0,673.971214331672
11720.0,675.734788022486
11724.0,677.4770533403258
11728.0,679.2254226281448
11732.0,681.0049480947512
11736.0,682.8378432528356
11740.0,684.7430644446241
11744.0,686.7359602239914
11748.0,688.827995017358
11752.0,691.026552031621
11756.0,693.3348188424137
11760.0,695.7517575364101
11764.0,698.2721597543187
11768.0,700.8867855102793
11772.0,703.5825832428027
11776.0,706.3429871808914
11780.0,709.1482868074704
11784.0,711.9760619964957
11788.0,714.8016763029049
11792.0,717.5988199030223
11796.0,720.3400928315884
11800.0,722.9976184566959
11804.0,725.5436765812899
11808.0,727.951345150246
11812.0,730.1951392557371
11816.0,732.2516359476836
11820.0,734.1000732516236
11824.0,735.7229117663821
11828.0,737.1063472706168
11832.0,738.2407629407702
11836.0,739.1211101084041
11840.0,739.7472069926553
11844.0,740.123945577576
11848.0,740.261397861264
11852.0,740.1748142403721
11856.0,739.8845089616512
11860.0,739.4156304248486
11864.0,738.7978175651688
11868.0,738.0647473583557
11872.0,737.2535823760576
11876.0,736.4043309335887
11880.0,735.5591353906498
11884.0,734.7615063472248
11888.0,734.0555217324271
11892.0,733.4850101963018
11896.0,733.0927379762413
11900.0,732.9196177090353
11904.0,733.0039566092885
11908.0,733.3807600816266
11912.0,734.081105197837
11916.0,735.13159657418
11920.0,736.5539150710982
11924.0,738.3644674650005
11928.0,740.5741428625188
11932.0,743.1881791818556
11936.0,746.2061405505442
11940.0,749.6220040054139
11944.0,753.4243514738558
11948.0,757.5966607174919
11952.0,762.1176867964282
11956.0,766.9619237411528
11960.0,772.1001345653524
11964.0,777.4999365542917
11968.0,783.126427937307
11972.0,788.9428416116891
11976.0,794.9112115363562
11980.0,800.9930377441694
11984.0,807.1499365907353
11988.0,813.3442638143398
11992.0,819.5396991848985
11996.0,825.7017829299662
12000.0,831.7983956891314
12004.0,837.8001753977222
12008.0,843.6808661718628
12012.0,849.4175959071123
12016.0,854.9910808746474
12020.0,860.3857570778292
12024.0,865.5898395020288
12028.0,870.5953116374109
12032.0,875.3978487574408
12036.0,879.996679367107
12040.0,884.3943899731596
12044.0,888.596678881954
12048.0,892.6120651338028
12052.0,896.4515589633887
12056.0,900.1283003266684
12060.0,903.657172033738
12064.0,907.0543938753442
12068.0,910.3371038572739
12072.0,913.5229322949779
12076.0,916.6295740983832
12080.0,919.6743641273245
12084.0,922.673860054046
12088.0,925.6434367419155
12092.0,928.5968957318371
12096.0,931.546093016264
12100.0,934.5005878821173
12104.0,937.4673152282791
12108.0,940.450283419264
12112.0,943.4502994354659
12116.0,946.464722842501
12120.0,949.4872499554112
12124.0,952.5077295368887
12128.0,955.5120114399647
12132.0,958.4818297670332
12136.0,961.3947223493517
12140.0,964.2239886379103
12144.0,966.9386884211972
12148.0,969.5036841285648
12152.0,971.8797298165821
12156.0,974.023610244142
12160.0,975.8883336908804
12164.0,977.4233823220305
12168.0,978.5750238898036
12172.0,979.2866883121553
12176.0,979.4994121209334
12180.0,979.1523528872679
12184.0,978.1833745017382
12188.0,976.5297026140603
12192.0,974.1286476332447
12196.0,970.9183904709524
12200.0,966.8388237053753
12204.0,961.8324381228346
12208.0,955.8452418444102
12212.0,948.8276967843627
12216.0,940.7356553472246
12220.0,931.5312792072734
12224.0,921.1839216657071
12228.0,909.6709553062653
12232.0,896.9785273792078
12236.0,883.1022264945617
12240.0,868.0476457450766
12244.0,851.8308292245654
12248.0,834.4785909675679
12252.0,816.0286975344023
12256.0,796.5299077452216
12260.0,776.0418653877165
12264.0,754.6348430546041
12268.0,732.3893375827521
12272.0,709.3955198480731
12276.0,685.752543917239
12280.0,661.5677227727168
12284.0,636.955579977215
12288.0,612.0367886152405
12292.0,586.9370104999597
12296.0,561.7856499118476
12300.0,536.7145371334275
12304.0,511.85655790134433
12308.0,487.3442456877785
12312.0,463.3083544470076
12316.0,439.8764300913038
12320.0,417.1713994660643
12324.0,395.31019595225183
12328.0,374.40244100149164
12332.0,354.5492008386884
12336.0,335.841837125816
12340.0,318.3609694308636
12344.0,302.17556584685747
12348.0,287.3421761660995
12352.0,273.9043198053311
12356.0,261.89203831694135
12360.0,251.32161985181799
12364.0,242.19550036582208
12368.0,234.50234368864474
12372.0,228.2172998248031
12376.0,223.30243807742767
12380.0,219.7073488335613
12384.0,217.36990518211664
12388.0,216.21717300032952
12392.0,216.16645578000384
12396.0,217.12645832235717
12400.0,218.99855160742592
12404.0,221.6781197837034
12408.0,225.05596943863796
12412.0,229.01978106989836
12416.0,233.45558279478394
12420.0,238.24922663262217
12424.0,243.28784816715276
12428.0,248.46129116606716
12432.0,253.6634798759206
12436.0,258.7937231605903
12440.0,263.75793627846593
12444.0,268.46976778600913
12448.0,272.85162074729647
12452.0,276.83555907944975
12456.0,280.3640914340706
12460.0,283.39082646360725
12464.0,285.8809946135968
12468.0,287.8118327034613
12472.0,289.17282852653966
12476.0,289.9658235484009
12480.0,290.2049725368653
12484.0,289.91655962529893
12488.0,289.13867092161445
12492.0,287.92072444204564
12496.0,286.32285905577
12500.0,284.4151854067406
12504.0,282.27690341684695
12508.0,279.9952928551021
12512.0,277.6645854774557
12516.0,275.3847293448221
12520.0,273.2600580737936
12524.0,271.3978799101467
12528.0,269.9070035371041
12532.0,268.8962192534918
12536.0,268.47275534277185
12540.0,268.74072995384125
12544.0,269.79961869490813
12548.0,271.7427576130316
12552.0,274.6559004682632
12556.0,278.6158482862446
12560.0,283.6891681235439
12564.0,289.9310168554635
12568.0,297.3840846431186
12572.0,306.0776715700531
12576.0,316.02690973482356
12580.0,327.23214179460706
12584.0,339.67846551801307
12588.0,353.33545227619027
12592.0,368.15704556371315
12596.0,384.08164362056044
12600.0,401.0323680788822
12604.0,418.9175183365257
12608.0,437.63120910733426
12612.0,457.05418638918707
12616.0,477.0548150569468
12620.0,497.49022955533036
12624.0,518.2076377306144
12628.0,539.0457665367128
12632.0,559.836436981503
12636.0,580.406254128086
12640.0,600.5783962074476
12644.0,620.1744849444245
12648.0,639.016517064163
12652.0,656.9288346610108
12656.0,673.7401097613772
12660.0,689.2853162049784
12664.0,703.4076602560258
12668.0,715.9604405178288
12672.0,726.8088079911824
12676.0,735.8313984960142
12680.0,742.9218120232892
12684.0,747.9899167046684
12688.0,750.9629587841507
12692.0,751.7864640665149
12696.0,750.4249206358396
12700.0,746.8622370268736
12704.0,741.1019743384256
12708.0,733.1673548575804
12712.0,723.1010534997495
12716.0,710.9647816739953
12720.0,696.8386759755632
12724.0,680.8205062974005
12728.0,663.0247194434082
12732.0,643.5813350568474
12736.0,622.6347106975188
12740.0,600.3421924254808
12744.0,576.8726665946264
12748.0,552.4050279928915
12752.0,527.1265790990648
12756.0,501.2313750418469
12760.0,474.9185287813464
12764.0,448.39049102285554
12768.0,421.8513193578855
12772.0,395.5049510564763
12776.0,369.55349377468934
12780.0,344.19554817813423
12784.0,319.6245761145825
12788.0,296.0273274987917
12792.0,273.58233850128636
12796.0,252.45851295762154
12800.0,232.81379813635579
12804.0,214.79396513378111
12808.0,198.53150322298745
12812.0,184.14463649838842
12816.0,171.73647013790188
12820.0,161.39427254636877
12824.0,153.18889853336634
12828.0,147.17435753570285
12832.0,143.38752976436692
12836.0,141.84803202923428
12840.0,142.55823375966824
12844.0,145.5034222601445
12848.0,150.65211450390663
12852.0,157.95651093324216
12856.0,167.35308506397595
12860.0,178.7633014342541
12864.0,192.09445370884924
12868.0,207.24061444955748
12872.0,224.08368793018107
12876.0,242.49455715807412
12880.0,262.3343158263778
12884.0,283.45557522551894
12888.0,305.70383519781
12892.0,328.9189070571702
12896.0,352.93637509606395
12900.0,377.58908204566563
12904.0,402.70862294593223
12908.0,428.1268316223374
12912.0,453.67724444242936
12916.0,479.1965270189141
12920.0,504.52585066852413
12924.0,529.5122064543602
12928.0,554.0096454496241
12932.0,577.8804344928972
12936.0,600.9961172164661
12940.0,623.2384705878528
12944.0,644.5003476952384
12948.0,664.6863981026524
12952.0,683.7136578287302
12956.0,701.5120018598769
12960.0,718.0244531065816
12964.0,733.2073428963442
12968.0,747.0303195128967
12972.0,759.476202940615
12976.0,770.5406858209473
12980.0,780.2318826476798
12984.0,788.5697314207895
12988.0,795.5852543442751
12992.0,801.3196866549708
12996.0,805.823485228191
13000.0,809.1552311254038
13004.0,811.3804426451557
13008.0,812.5703176484766
13012.0,812.8004258896299
13016.0,812.1493737045199
13020.0,810.6974645902893
13024.0,808.5253798585031
13028.0,805.7129035808856
13032.0,802.3377153768571
13036.0,798.4742731076265
13040.0,794.192805203607
13044.0,789.5584292920571
13048.0,784.6304102810062
13052.0,779.4615673543534
13056.0,774.0978355989241
13060.0,768.5779842944273
13064.0,762.93349029879
13068.0,757.1885614985046
13072.0,751.3603020177549
13076.0,745.4590078515055
13080.0,739.4885788855983
13084.0,733.447030998494
13088.0,727.3270902287513
13092.0,721.1168499708075
13096.0,714.8004719680491
13100.0,708.3589126056831
13104.0,701.7706576014912
13108.0,695.0124503314332
13112.0,688.0600012383687
13116.0,680.8886676951098
13120.0,673.4740952568238
13124.0,665.792812592465
13128.0,657.8227736952174
13132.0,649.5438422944691
13136.0,640.9382147007044
13140.0,631.9907785758252
13144.0,622.6894063188058
13148.0,613.0251828788706
13152.0,602.9925688496631
13156.0,592.5895006734231
13160.0,581.8174307220929
13164.0,570.6813109275149
13168.0,559.1895244675814
13172.0,547.353770726865
13176.0,535.1889093181599
13180.0,522.7127693929663
13184.0,509.94593079957775
13188.0,496.91148384827676
13192.0,483.6347744764466
13196.0,470.1431414531852
13200.0,456.46565194299535
13204.0,442.6328413069011
13208.0,428.67646249239823
13212.0,414.6292497528786
13216.0,400.5247007249504
13220.0,386.3968800692846
13224.0,372.280246957752
13228.0,358.20950769404004
13232.0,344.21949372247525
13236.0,330.34506424302987
13240.0,316.6210316379164
13244.0,303.08210695875954
13248.0,289.76286185322516
13252.0,276.69770254628685
13256.0,263.9208508521047
13260.0,251.46632670031659
13264.0,239.36792633985206
13268.0,227.65919026209872
13272.0,216.3733549946187
13276.0,205.54328328751785
13280.0,195.20136787634746
13284.0,185.37940497322091
13288.0,176.10843489596334
13292.0,167.41854875039712
13296.0,159.3386617673215
13300.0,151.89625566247744
13304.0,145.1170941023543
13308.0,139.02491689351498
13312.0,133.64111977821497
13316.0,128.9844276638428
13320.0,125.07056971387293
13324.0,121.91196497861402
13328.0,119.51742715550404
13332.0,117.89189666326817
13336.0,117.0362075313433
13340.0,116.94689570923855
13344.0,117.61605436511616
13348.0,119.03124062870305
13352.0,121.17543707087165
13356.0,124.02707000884254
13360.0,127.56008548701466
13364.0,131.74408252609163
13368.0,136.5445019881126
13372.0,141.92286820985709
13376.0,147.83707945003795
13380.0,154.24174221053104
13384.0,161.08854365622747
13388.0,168.32665569479826
13392.0,175.90316380577417
13396.0,183.76351344283913
13400.0,191.85196678692023
13404.0,200.11206281355487
13408.0,208.48707406177084
13412.0,216.92045413354552
13416.0,225.3562707599668
13420.0,233.73962017309597
13424.0,242.01701945798848
13428.0,250.1367744781327
13432.0,258.0493218307482
13436.0,265.70754406404467
13440.0,273.06705805226426
13444.0,280.08647695982273
13448.0,286.7276466241306
13452.0,292.9558574447045
13456.0,298.7400329867042
13460.0,304.05289649921656
13464.0,308.8711164277817
13468.0,313.1754317867463
13472.0,316.95075797266435
13476.0,320.1862732688063
13480.0,322.87548593587184
13484.0,325.0162814260516
13488.0,326.61094891443287
13492.0,327.6661860278812
13496.0,328.1930803791926
13500.0,328.20706629485835
13504.0,327.72785496911183
13508.0,326.7793361940784
13512.0,325.3894498117067
13516.0,323.5900251098659
13520.0,321.41658654119004
13524.0,318.9081243754609
13528.0,316.1068292010434
13532.0,313.05778956583976
13536.0,309.80865249170773
13540.0,306.4092471055082
13544.0,302.9111722000134
13548.0,299.3673491618032
13552.0,295.8315423723951
13556.0,292.3578498937909
13560.0,289.00016798051337
13564.0,285.81163370675125
13568.0,282.8440507484653
13572.0,280.1473041040757
13576.0,277.76877025987767
13580.0,275.7527299922536
13584.0,274.13979163134803
13588.0,272.9663331713708
13592.0,272.2639720793167
13596.0,272.05907200179234
13600.0,272.37229577106683
13604.0,273.2182141333201
13608.0,274.60497942182485
13612.0,276.5340729288685
13616.0,279.0001339625441
13620.0,281.9908775112288
13624.0,285.48710610972574
13628.0,289.4628199462236
13632.0,293.8854275097314
13636.0,298.7160571981885
13640.0,303.9099683371188
13644.0,309.4170580492915
13648.0,315.1824584208416
13652.0,321.1472164832557
13656.0,327.24904772745435
13660.0,333.4231522367218
13664.0,339.60308111484534
13668.0,345.7216397330892
13672.0,351.71181345551486
13676.0,357.50770094918437
13680.0,363.0454399562703
13684.0,368.2641105003235
13688.0,373.10660091090915
13692.0,377.52042276560053
13696.0,381.4584618479863
13700.0,384.87965348149464
13704.0,387.74957208944676
13708.0,390.04092650996824
13712.0,391.73395441054237
13716.0,392.8167110469946
13720.0,393.2852495393512
13724.0,393.1436917328212
13728.0,392.40419051035576
13732.0,391.0867860577868
13736.0,389.21916000853247
13740.0,386.8362926064086
13744.0,383.9800290478512
13748.0,380.6985620326716
13752.0,377.04583829306205
13756.0,373.08089750333
13760.0,368.8671525093833
13764.0,364.4716202615665
13768.0,359.9641131860255
13772.0,355.41640098458527
13776.0,350.90135300647506
13780.0,346.4920713827934
13784.0,342.26102505334086
13788.0,338.27919464434575
13792.0,334.6152378761983
13796.0,331.3346847967019
13800.0,328.49917165416866
13804.0,326.1657216547707
13808.0,324.38608020028306
13812.0,323.2061114863748
13816.0,322.665262568483
13820.0,322.79610018308057
13824.0,323.62392475887503
13828.0,325.16646517752355
13832.0,327.433656958389
13836.0,330.42750565668916
13840.0,334.14203638776553
13844.0,338.56332952970064
13848.0,343.6696418184352
13852.0,349.43161123846215
13856.0,355.8125433314826
13860.0,362.76877579906085
13864.0,370.2501175690563
13868.0,378.20035783645454
13872.0,386.5578399836723
13876.0,395.25609473778195
13880.0,404.2245264336982
13884.0,413.3891458223196
13888.0,422.67334248903114
13892.0,431.9986896273968
13896.0,441.28577363860467
13900.0,450.45504078906896
13904.0,459.42765294527135
13908.0,468.12634420716086
13912.0,476.4762700736699
13916.0,484.4058405949368
13920.0,491.8475287993852
13924.0,498.7386455399807
13928.0,505.02207180400694
13932.0,510.6469395152402
13936.0,515.5692519860696
13940.0,519.7524355068855
13944.0,523.167814118243
13948.0,525.7950003901083
13952.0,527.6221960050523
13956.0,528.6463970763497
13960.0,528.8735003936947
13964.0,528.3183081442412
13968.0,527.004430072591
13972.0,524.9640834911373
13976.0,522.2377930051209
13980.0,518.873993248819
13984.0,514.9285393142234
13988.0,510.46413086537837
13992.0,505.54965714589554
13996.0,500.25947118226617
14000.0,494.6726024421893
14004.0,488.87191800832454
14008.0,482.9432429592952
14012.0,476.97445110035085
14016.0,471.05453744864354
14020.0,465.2726839488305
14024.0,459.71732977258296
14028.0,454.4752572423514
14032.0,449.630703920836
14036.0,445.2645107327064
14040.0,441.45331514837744
14044.0,438.26879748255243
14048.0,435.7769872798706
14052.0,434.0376356364478
14056.0,433.1036582126401
14060.0,433.02065268936286
14064.0,433.8264935370508
14068.0,435.55100620330745
14072.0,438.2157221652702
14076.0,441.83371570879626
14080.0,446.4095227571419
14084.0,451.9391415454054
14088.0,458.41011439802685
14092.0,465.8016893003616
14096.0,474.08505935957
14100.0,483.22367763195564
14104.0,493.17364416446014
14108.0,503.88416146768145
14112.0,515.2980540149731
14116.0,527.3523467540459
14120.0,539.9788970308286
14124.0,553.1050737667528
14128.0,566.6544772068027
14132.0,580.5476920743127
14136.0,594.703066538516
14140.0,609.0375090313864
14144.0,623.4672946494165
14148.0,637.9088726509842
14152.0,652.2796664184791
14156.0,666.4988572040882
14160.0,680.4881430253956
14164.0,694.1724642258843
14168.0,707.4806874688179
14172.0,720.3462402929908
14176.0,732.707688825881
14180.0,744.5092518216422
14184.0,755.7012448638646
14188.0,766.2404493409779
14192.0,776.0904016596837
14196.0,785.2215991015686
14200.0,793.611619741049
14204.0,801.2451549195146
14208.0,808.1139539012779
14212.0,814.2166815099803
14216.0,819.5586907437063
14220.0,824.1517135751076
14224.0,828.0134743425565
14228.0,831.1672313164052
14232.0,833.6412531710951
14236.0,835.4682382023065
14240.0,836.6846851948064
14244.0,837.3302258699694
14248.0,837.4469298188606
14252.0,837.0785937391587
14256.0,836.2700275940309
14260.0,835.0663509217987
14264.0,833.5123128638373
14268.0,831.6516494794125
14272.0,829.526491540372
14276.0,827.1768352280097
14280.0,824.6400869883324
14284.0,821.950692255037
14288.0,819.1398558505357
14292.0,816.2353596634603
14296.0,813.2614807192512
14300.0,810.2390100513687
14304.0,807.185369889737
14308.0,804.114823677228
14312.0,801.0387704273464
14316.0,797.9661121389157
14320.0,794.9036805930967
14324.0,791.8567080057892
14328.0,788.8293247226142
14332.0,785.8250664049629
14336.0,782.8473729506243
14340.0,779.9000617105489
14344.0,776.9877583760363
14348.0,774.1162701761106
14352.0,771.292887699202
14356.0,768.526603688623
14360.0,765.82823950087
14364.0,763.2104724953301
14368.0,760.6877603707647
14372.0,758.2761612896289
14376.0,755.9930514407844
14380.0,753.8567444137553
14384.0,751.8860193631665
14388.0,750.0995674179071
14392.0,748.5153681142116
14396.0,747.1500097767666
14400.0,746.0179697124904
14404.0,745.1308717873123
14408.0,744.496740372343
14412.0,744.1192706974833
14416.0,743.9971362734613
14420.0,744.1233542132147
14424.0,744.484729020513
14428.0,745.0613947613509
14432.0,745.8264745219915
14436.0,746.7458746753109
14440.0,747.7782296836557
14444.0,748.8750109317438
14448.0,749.9808104052879
14452.0,751.0338069213369
14456.0,751.9664190950793
14460.0,752.7061453339124
14464.0,753.1765869329048
14468.0,753.298645850515
14472.0,752.991884008577
14476.0,752.1760260306469
14480.0,750.7725822677686
14484.0,748.7065638651956
14488.0,745.90825670912
14492.0,742.3150167096461
14496.0,737.8730454301729
14500.0,732.5391028706489
14504.0,726.2821133938799
14508.0,719.0846213807648
14512.0,710.9440551953467
14516.0,701.873761357771
14520.0,691.9037752869638
14524.0,681.081300334853
14528.0,669.4708728585758
14532.0,657.154197611866
14536.0,644.2296446719274
14540.0,630.8114063346122
14544.0,617.0283197777138
14548.0,603.0223686882305
14552.0,588.9468843365216
14556.0,574.9644735249148
14560.0,561.2447070800226
14564.0,547.9616077192604
14568.0,535.2909799844289
14572.0,523.4076275108863
14576.0,512.4825043675083
14580.0,502.6798477992201
14584.0,494.15433964829623
14588.0,487.0483431779592
14592.0,481.4892610676401
14596.0,477.5870590395344
14600.0,475.43199788457684
14604.0,475.09261447044827
14608.0,476.61398949488034
14612.0,480.01633622470325
14616.0,485.29394027340953
14620.0,492.4144757162263
14624.0,501.31871761313283
14628.0,511.9206653571813
14632.0,524.1080852021938
14636.0,537.7434738628663
14640.0,552.6654382708485
14644.0,568.690479503725
14648.0,585.6151616820197
14652.0,603.2186393457836
14656.0,621.2655095738235
14660.0,639.508948008164
14664.0,657.6940811464538
14668.0,675.5615410251672
14672.0,692.8511431328749
14676.0,709.3056244868715
14680.0,724.6743765729133
14684.0,738.7171074390889
14688.0,751.2073687188974
14692.0,761.9358866838818
14696.0,770.7136413421434
14700.0,777.374643701503
14704.0,781.7783682041725
14708.0,783.8118047214427
14712.0,783.3911021781723
14716.0,780.4627837085391
14720.0,775.0045210915821
14724.0,767.0254639493611
14728.0,756.5661266906054
14732.0,743.6978433315579
14736.0,728.5218070059581
14740.0,711.1677170693723
14744.0,691.7920620944114
14748.0,670.5760716292524
14752.0,647.7233732270714
14756.0,623.4573938159987
14760.0,598.0185458996822
14764.0,571.6612394710435
14768.0,544.6507602164374
14772.0,517.2600539943072
14776.0,489.76645698754635
14780.0,462.44841045724525
14784.0,435.58219863318686
14788.0,409.438747862705
14792.0,384.28052457713625
14796.0,360.35856878756596
14800.0,337.90969854145453
14804.0,317.1539188846373
14808.0,298.292066194194
14812.0,281.5037151632258
14816.0,266.94537126922387
14820.0,254.74896642910156
14824.0,245.02066998163292
14828.0,237.84002137545434
14832.0,233.25938518893614
14836.0,231.30372359608918
14840.0,231.97067640130882
14844.0,235.2309345862805
14848.0,241.02889014576766
14852.0,249.28354287724108
14856.0,259.8896436098431
14860.0,272.7190528774667
14864.0,287.6222940374884
14868.0,304.4302802082212
14872.0,322.9561951071595
14876.0,342.9975088050481
14880.0,364.338110369292
14884.0,386.7505401923149
14888.0,409.9983054134583
14892.0,433.83826221338245
14896.0,458.02304886074296
14900.0,482.3035532093148
14904.0,506.4313978799231
14908.0,530.161425620517
14912.0,553.2541663298249
14916.0,575.4782659722989
14920.0,596.6128561317803
14924.0,616.4498413160976
14928.0,634.7960795057224
14932.0,651.4754301356415
14936.0,666.3306430417238
14940.0,679.2250621027832
14944.0,690.0441184055921
14948.0,698.6965896737188
14952.0,705.11560529633
14956.0,709.2593794079846
14960.0,711.1116579659905
14964.0,710.681869591891
14968.0,708.0049741035871
14972.0,703.1410071503218
14976.0,696.1743240537613
14980.0,687.2125506698046
14984.0,676.3852536541492
14988.0,663.8423468201117
14992.0,649.7522542010854
14996.0,634.2998538085603
15000.0,617.6842287218767
15004.0,600.1162539662486
15008.0,581.8160487618444
15012.0,563.0103245000013
15016.0,543.9296596089198
15020.0,524.8057335375788
15024.0,505.86855336452794
15028.0,487.34370774422666
15032.0,469.4496837094714
15036.0,452.39528207221554
15040.0,436.37716677577475
15044.0,421.5775825181259
15048.0,408.16227317002466
15052.0,396.2786308071769
15056.0,386.05410149575073
15060.0,377.59486940205466
15064.0,370.9848356028128
15068.0,366.2849025105929
15072.0,363.53256940379816
15076.0,362.74183932811167
15080.0,363.90343267697835
15084.0,366.9852980840282
15088.0,371.9334068851013
15092.0,378.6728133476059
15096.0,387.10895914124035
15100.0,397.1291971672209
15104.0,408.6045069162483
15108.0,421.39137104615503
15112.0,435.3337809330531
15116.0,450.2653376487504
15120.0,466.01141426763905
15124.0,482.391345739452
15128.0,499.22061389013027
15132.0,516.3129974324033
15136.0,533.4826599980436
15140.0,550.5461528253741
15144.0,567.3243125345596
15148.0,583.6440381796622
15152.0,599.3399353369342
15156.0,614.2558182698788
15160.0,628.2460641311625
15164.0,641.1768156693523
15168.0,652.9270309596094
15172.0,663.3893802279182
15176.0,672.4709908568196
15180.0,680.0940421624093
15184.0,686.1962116419809
15188.0,690.7309743625777
15192.0,693.6677572576742
15196.0,694.9919504313016
15200.0,694.7047780972018
15204.0,692.8230324818278
15208.0,689.3786749289252
15212.0,684.4183095226434
15216.0,678.0025356192052
15220.0,670.2051865083981
15224.0,661.112461831203
15228.0,650.8219613237212
15232.0,639.4416271205292
15236.0,627.0886015663935
15240.0,613.8880075572816
15244.0,599.9716589850503
15248.0,585.4767098217579
15252.0,570.544251542707
15256.0,555.3178697338362
15260.0,539.9421717735526
15264.0,524.5612985093475
15268.0,509.31743400670405
15272.0,494.3493287908113
15276.0,479.7908534653691
15280.0,465.76960097974955
15284.0,452.40555680629245
15288.0,439.80985655198145
15292.0,428.08364988121224
15296.0,417.31708808775466
15300.0,407.5884503621148
15304.0,398.96342091960514
15308.0,391.4945258575789
15312.0,385.2207351243455
15316.0,380.1672316091745
15320.0,376.3453463808376
15324.0,373.7526566081695
15328.0,372.373240597608
15332.0,372.17808257807945
15336.0,373.12561837001726
15340.0,375.16241195668766
15344.0,378.2239522262631
15348.0,382.23555868942225
15352.0,387.11338469671034
15356.0,392.7655064918434
15360.0,399.093086268251
15364.0,405.99159719346244
15368.0,413.35209810574963
15372.0,421.0625452848297
15376.0,429.00912841251653
15380.0,437.0776176691723
15384.0,445.1547089583124
15388.0,453.12935452201685
15392.0,460.8940665386533
15396.0,468.34618141798694
15400.0,475.389072267724
15404.0,481.93329644605194
15408.0,487.89766439279737
15412.0,493.2102152238732
15416.0,497.80908411435047
15420.0,501.64324657304724
15424.0,504.6731255339293
15428.0,506.8710487887929
15432.0,508.22154655976976
15436.0,508.7214818019454
15440.0,508.3800089506387
15444.0,507.21836007664325
15448.0,505.2694605935353
15452.0,502.5773796670642
15456.0,499.1966233284776
15460.0,495.1912810818509
15464.0,490.6340395345825
15468.0,485.6050791200358
15472.0,480.1908720734874
15476.0,474.48290124215856
15480.0,468.57631992665335
15484.0,462.5685727865854
15488.0,456.5579971138539
15492.0,450.64242280658044
15496.0,444.91778839448347
15500.0,439.4767894902061
15504.0,434.4075749689492
15508.0,429.7925049801848
15512.0,425.7069836881422
15516.0,422.2183785722754
15520.0,419.385037218964
15524.0,417.2554117130754
15528.0,415.86729996250915
15532.0,415.2472126615017
15536.0,415.40987421219035
15540.0,416.3578657198366
15544.0,418.08141798644624
15548.0,420.55836209406044
15552.0,423.7542445878971
15556.0,427.6226133588092
15560.0,432.105479008732
15564.0,437.1339547018126
15568.0,442.6290752241314
15572.0,448.5027931915485
15576.0,454.65914707925504
15580.0,460.9955920428994
15584.0,467.40448042921867
15588.0,473.7746745308189
15592.0,479.99326965324525
15596.0,485.9474010998515
15600.0,491.5261044713938
15604.0,496.6221950576622
15608.0,501.1341295095267
15612.0,504.9678118486401
15616.0,508.0383064010693
15620.0,510.27142228835277
15624.0,511.60513727226964
15628.0,511.99083255834614
15632.0,511.3943142491614
15636.0,509.7966013334145
15640.0,507.19446442242986
15644.0,503.6007039855286
15648.0,499.04416160998824
15652.0,493.56946276472354
15656.0,487.2364945946668
15660.0,480.1196273258239
15664.0,472.30669280109777
15668.0,463.8977382900572
15672.0,455.0035777339598
15676.0,445.74416577729534
15680.0,436.2468223098911
15684.0,426.6443370067496
15688.0,417.07298469102454
15692.0,407.67048327364813
15696.0,398.5739264406311
15700.0,389.91772311044764
15704.0,381.8315750544638
15708.0,374.4385231199744
15712.0,367.85309128883404
15716.0,362.17955627884487
15720.0,357.5103684512781
15724.0,353.92474739662384
15728.0,351.48747276727636
15732.0,350.24788775961395
15736.0,350.23912915506867
15740.0,351.4775940321428
15744.0,353.9626491764621
15748.0,357.6765848917984
15752.0,362.58481049564404
15756.0,368.6362845413335
15760.0,375.7641690641559
15764.0,383.88669412008124
15768.0,392.9082166246356
15772.0,402.72045594248755
15776.0,413.2038877208383
15780.0,424.2292769728086
15784.0,435.6593312064118
15788.0,447.3504541869064
15792.0,459.15458046237796
15796.0,470.92106999856156
15800.0,482.49864131559605
15804.0,493.73732067686274
15808.0,504.49038436710464
15812.0,514.6162709521009
15816.0,523.9804405306943
15820.0,532.4571582577368
15824.0,539.931179793945
15828.0,546.2993168695098
15832.0,551.4718619589075
15836.0,555.3738523233851
15840.0,557.9461554701754
15844.0,559.1463603248922
15848.0,558.9494609582952
15852.0,557.3483224390399
15856.0,554.3539212428384
15860.0,549.9953555758707
15864.0,544.3196238875453
15868.0,537.391172700298
15872.0,529.2912177217248
15876.0,520.1168452147432
15880.0,509.97990398630276
15884.0,499.0057021164155
15888.0,487.33152642844686
15892.0,475.10500633595217
15896.0,462.48234679441344
15900.0,449.62645744442597
15904.0,436.705006523933
15908.0,423.8884286606541
15912.0,411.34791522432846
15916.0,399.253414655721
15920.0,387.77166834094766
15924.0,377.0643053941094
15928.0,367.286017281032
15932.0,358.5828306441906
15936.0,351.09049407174905
15940.0,344.9329920178045
15944.0,340.22119677620594
15948.0,337.05166750854386
15952.0,335.50560398034924
15956.0,335.64796191182586
15960.0,337.52673656014974
15964.0,341.17242102324354
15968.0,346.59764546937015
15972.0,353.7970028170968
15976.0,362.7470651672826
15980.0,373.4065934153901
15984.0,385.71693988760404
15988.0,399.60264060896395
15992.0,414.9721901713356
15996.0,431.7189884913919
16000.0,449.7224453601218
16004.0,468.84922576056607
16008.0,488.95461654132623
16012.0,509.8839932998445
16016.0,531.4743654992012
16020.0,553.555978157642
16024.0,575.9539498928601
16028.0,598.4899292994182
16032.0,620.983754052418
16036.0,643.2550993472913
16040.0,665.1251041217967
16044.0,686.4179649516309
16048.0,706.9624886222718
16052.0,726.593595204396
16056.0,745.1537640052952
16060.0,762.4944150154645
16064.0,778.4772184032618
16068.0,792.9753242301715
16072.0,805.8745038744486
16076.0,817.0741936892372
16080.0,826.4884302597759
16084.0,834.046665445947
16088.0,839.6944485073623
16092.0,843.3939623336439
16096.0,845.1244013263536
16100.0,844.8821797956756
16104.0,842.6809617320177
16108.0,838.5515053488408
16112.0,832.5413187239059
16116.0,824.7141260554095
16120.0,815.1491473677413
16124.0,803.9401978216091
16128.0,791.1946160026608
16132.0,777.0320336251674
16136.0,761.583001962935
16140.0,744.9874929820297
16144.0,727.3932955815158
16148.0,708.954329538926
16152.0,689.8289016822444
16156.0,670.1779304136192
16160.0,650.1631658839578
16164.0,629.9454336883045
16168.0,609.6829297273192
16172.0,589.5295927517005
16176.0,569.6335791006494
16180.0,550.1358613763932
16184.0,531.1689693917663
16188.0,512.8558877997274
16192.0,495.3091204740831
16196.0,478.62992711283783
16200.0,462.9077329454634
16204.0,448.21970825477183
16208.0,434.6305111220541
16212.0,422.1921846287584
16216.0,410.9441986029655
16220.0,400.91362548001393
16224.0,392.11543946340953
16228.0,384.5529276042079
16232.0,378.21820064848873
16236.0,373.09279074039273
16240.0,369.14832253346253
16244.0,366.34724405976243
16248.0,364.6436038352576
16252.0,363.9838610975014
16256.0,364.30771672776393
16260.0,365.5489532727749
16264.0,367.6362735420058
16268.0,370.494128508369
16272.0,374.04352666922165
16276.0,378.2028186158154
16280.0,382.8884523053695
16284.0,388.0156964275156
16288.0,393.49933125780694
16292.0,399.2543083259212
16296.0,405.1963818220057
16300.0,411.2427156799902
16304.0,417.31247060166913
16308.0,423.32737492020215
16312.0,429.21228219893334
16316.0,434.89571692541915
16320.0,440.310407806428
16324.0,445.3938063476663
16328.0,450.08858698610527
16332.0,454.34312425037245
16336.0,458.1119422471292
16340.0,461.35613205398005
16344.0,464.0437331445269
16348.0,466.15007558065605
16352.0,467.65808019045147
16356.0,468.55851414012267
16360.0,468.85019909068205
16364.0,468.5401684728601
16368.0,467.64376937091833
16372.0,466.18470315737096
16376.0,464.1949974011385
16380.0,461.7148997349874
16384.0,458.7926825437082
16388.0,455.48434593647846
16392.0,451.85320592167824
16396.0,447.96935531450845
16400.0,443.9089868268585
16404.0,439.75357096086066
16408.0,435.5888854731509
16412.0,431.5038979486484
16416.0,427.5895082306304
16420.0,423.9371630778261
16424.0,420.6373613913433
16428.0,417.7780743761719
16432.0,415.44311058186895
16436.0,413.71046041978326
16440.0,412.650658180915
16444.0,412.3252016919853
16448.0,412.78507057570505
16452.0,414.069383678028
16456.0,416.2042346442211
16460.0,419.2017419213083
16464.0,423.05934568158904
16468.0,427.75937933763146
16472.0,433.2689375113044
16476.0,439.54005563247665
16480.0,446.5102089405393
16484.0,454.1031307718724
16488.0,462.22994190366876
16492.0,470.7905746333331
16496.0,479.67546739913547
16500.0,488.76749826225955
16504.0,497.94411864716136
16508.0,507.07964258000936
16512.0,516.0476415541136
16516.0,524.7233914744652
16520.0,532.9863162909987
16524.0,540.7223731127953
16528.0,547.8263256401821
16532.0,554.2038562471569
16536.0,559.7734715778932
16540.0,564.4681618127311
16544.0,568.2367796511203
16548.0,571.0451114390553
16552.0,572.8766196428843
16556.0,573.7328429513116
16560.0,573.6334475644445
16564.0,572.6159305626383
16568.0,570.7349834814991
16572.0,568.0615311995363
16576.0,564.6814678340897
16580.0,560.6941174189732
16584.0,556.2104525780436
16588.0,551.35110904918
16592.0,546.2442375713844
16596.0,541.0232371979397
16600.0,535.8244155141824
16604.0,530.7846215835773
16608.0,526.0388968645168
16612.0,521.7181880166695
16616.0,517.9471635594717
16620.0,514.8421737055136
16624.0,512.5093892146244
16628.0,511.0431506908241
16632.0,510.52455443109994
16636.0,511.02029499773914
16640.0,512.5817785134695
16644.0,515.2445146152045
16648.0,519.0277892473711
16652.0,523.9346151122276
16656.0,529.9519516553955
16660.0,537.0511819686711
16664.0,545.1888299521602
16668.0,554.3074975027538
16672.0,564.3369983853066
16676.0,575.1956627801388
16680.0,586.7917842642269
16684.0,599.0251791759467
16688.0,611.7888269735788
16692.0,624.9705593793759
16696.0,638.4547658451049
16700.0,652.1240832145149
16704.0,665.8610384413095
16708.0,679.549614925276
16712.0,693.0767155390864
16716.0,706.3334987496762
16720.0,719.2165682519307
16724.0,731.6290009524877
16728.0,743.4812026899151
16732.0,754.6915855847085
16736.0,765.1870653117243
16740.0,774.9033808525217
16744.0,783.7852433848208
16748.0,791.7863248490418
16752.0,798.8691003168766
16756.0,805.0045614535214
16760.0,810.171820961743
16764.0,814.3576297746494
16768.0,817.5558298016085
16772.0,819.7667651140721
16776.0,820.9966734932132
16780.0,821.2570782724367
16784.0,820.5641976201073
16788.0,818.9383851852575
16792.0,816.403612694608
16796.0,812.9870018275809
16800.0,808.7184096085257
16804.0,803.6300687325011
16808.0,797.7562817559218
16812.0,791.1331659691782
16816.0,783.7984440393659
16820.0,775.7912741905993
16824.0,767.1521127946592
16828.0,757.9226017584153
16832.0,748.1454729667055
16836.0,737.8644622236347
16840.0,727.1242256104161
16844.0,715.9702519259397
16848.0,704.4487658468306
16852.0,692.6066175580577
16856.0,680.4911557985515
16860.0,668.1500825121961
16864.0,655.6312885792336
16868.0,642.982671386147
16872.0,630.2519361955891
16876.0,617.4863843177577
16880.0,604.7326919202386
16884.0,592.0366839580208
16888.0,579.4431081779351
16892.0,566.9954144392133
16896.0,554.7355446687233
16900.0,542.7037386258411
16904.0,530.9383602887539
16908.0,519.4757490819206
16912.0,508.35009931968995
16916.0,497.5933701372523
16920.0,487.2352268791397
16924.0,477.3030135536338
16928.0,467.8217546843282
16932.0,458.81418378875253
16936.0,450.300794822504
16940.0,442.29991224362766
16944.0,434.8277748467458
16948.0,427.8986281557555
16952.0,421.5248199352054
16956.0,415.7168932902129
16960.0,410.483671890983
16964.0,405.8323321087847
16968.0,401.76845730376203
16972.0,398.29607014593665
16976.0,395.4176396393352
16980.0,393.1340604164065
16984.0,391.44460284634636
16988.0,390.3468335306096
16992.0,389.83650682061
16996.0,389.90742908308835
17000.0,390.55129857068397
17004.0,391.75752492528443
17008.0,393.51303350612284
17012.0,395.80206083073756
17016.0,398.60594839024947
17020.0,401.9029428994324
17024.0,405.6680116122137
17028.0,409.8726816333212
17032.0,414.48491217735346
17036.0,419.46900849077656
17040.0,424.7855856890326
17044.0,430.3915900723664
17048.0,436.2403845601761
17052.0,442.28190374881217
17056.0,448.46288281185593
17060.0,454.7271630667103
17064.0,461.0160755113249
17068.0,467.2689019459295
17072.0,473.4234114312306
17076.0,479.41646786467913
17080.0,485.1847024895678
17084.0,490.6652432769345
17088.0,495.7964913827844
17092.0,500.5189333078295
17096.0,504.7759759989257
17100.0,508.51479095317535
17104.0,511.68715243713945
17108.0,514.2502542432078
17112.0,516.1674890184661
17116.0,517.4091741796985
17120.0,517.9532088241081
17124.0,517.7856468568029
17128.0,516.9011727130344
17132.0,515.3034674705509
17136.0,513.0054547800179
17140.0,510.02941787633205
17144.0,506.4069809596559
17148.0,502.17895043720927
17152.0,497.3950138755464
17156.0,492.11329699552687
17160.0,486.39978160551186
17164.0,480.3275899637516
17168.0,473.97614363012855
17172.0,467.4302073463563
17176.0,460.778830814596
17180.0,454.1142033785279
17184.0,447.53043850472193
17188.0,441.122306576264
17192.0,434.9839358102578
17196.0,429.20750206216104
17200.0,423.88192884120286
17204.0,419.0916189826616
17208.0,414.9152390669874
17212.0,411.42457684199434
17216.0,408.6834906376168
17220.0,406.7469681454815
17224.0,405.66031006250944
17228.0,405.458452041637
17232.0,406.165436194413
17236.0,407.79404107887154
17240.0,410.34557670946043
17244.0,413.8098486613285
17248.0,418.1652928123835
17252.0,423.3792796722228
17256.0,429.4085846005895
17260.0,436.20001756133854
17264.0,443.69120345423966
17268.0,451.81150158378773
17272.0,460.48305052116274
17276.0,469.62192253116757
17280.0,479.13936988810804
17284.0,488.94314381057586
17288.0,498.9388654327129
17292.0,509.03142722575024
17296.0,519.1264026064364
17300.0,529.1314411310794
17304.0,538.9576266927405
17308.0,548.5207765453702
17312.0,557.7426598067046
17316.0,566.5521153516263
17320.0,574.8860506717128
17324.0,582.6903052922767
17328.0,589.9203646458726
17332.0,596.541912842911
17336.0,602.5312155011424
17340.0,607.87532664356
17344.0,612.5721165910945
17348.0,616.630120693753
17352.0,620.0682115893587
17356.0,622.9151003967703
17360.0,625.2086748062918
17364.0,626.9951843997927
17368.0,628.3282857031415
17372.0,629.2679614494505
17376.0,629.8793303253561
17380.0,630.2313650810864
17384.0,630.3955382891656
17388.0,630.4444162118963
17392.0,630.4502221603814
17396.0,630.4833913751003
17400.0,630.6111398144749
17404.0,630.8960693085146
17408.0,631.394831349437
17412.0,632.1568713855961
17416.0,633.2232748721098
17420.0,634.6257354912503
17424.0,636.3856648451185
17428.0,638.5134614966594
17432.0,641.0079554599725
17436.0,643.8560421002658
17440.0,647.0325168910707
17444.0,650.5001195919971
17448.0,654.2097931680369
17452.0,658.1011592092897
17456.0,662.1032077869646
17460.0,666.1351956492492
17464.0,670.1077424476706
17468.0,673.9241103433837
17472.0,677.4816480416874
17476.0,680.6733763513819
17480.0,683.3896890821975
17484.0,685.5201406231839
17488.0,686.9552898359154
17492.0,687.5885688429279
17496.0,687.3181448448172
17500.0,686.0487432587471
17504.0,683.6934012401885
17508.0,680.1751220092601
17512.0,675.4284022982533
17516.0,669.4006075829028
17520.0,662.0531724691708
17524.0,653.3626066101991
17528.0,643.3212897685916
17532.0,631.9380430621512
17536.0,619.2384669775137
17540.0,605.2650403453666
17544.0,590.0769780854323
17548.0,573.7498491015905
17552.0,556.374959208246
17556.0,538.058507383004
17560.0,518.920526946968
17564.0,499.09362643884054
17568.0,478.72154793996555
17572.0,457.9575633932558
17576.0,436.962731993719
17580.0,415.904043954934
17584.0,394.95247782580134
17588.0,374.28100001015235
17592.0,354.06253619744274
17596.0,334.4679450138933
17600.0,315.66402431992316
17604.0,297.8115801881772
17608.0,281.06358768315994
17612.0,265.563471123768
17616.0,251.443529546844
17620.0,238.82353061458474
17624.0,227.80949324294323
17628.0,218.49267580606687
17632.0,210.94878294116933
17636.0,205.23739980213094
17640.0,201.40165816742015
17644.0,199.46813419326804
17648.0,199.4469729261228
17652.0,201.33223007347925
17656.0,205.1024171187739
17660.0,210.7212318108541
17664.0,218.1384525370023
17668.0,227.29097229003895
17672.0,238.10394602971297
17676.0,250.4920242660533
17680.0,264.360645526742
17684.0,279.60736078416284
17688.0,296.1231637626612
17692.0,313.7938023175581
17696.0,332.5010478183987
17700.0,352.123901679869
17704.0,372.539720816224
17708.0,393.62524678114835
17712.0,415.25752662090247
17716.0,437.3147169342142
17720.0,459.6767662098251
17724.0,482.2259741080873
17728.0,504.84742987159524
17732.0,527.4293354017133
17736.0,549.863221643284
17740.0,572.0440697098205
17744.0,593.8703505949203
17748.0,615.2439992945796
17752.0,636.0703406527633
17756.0,656.2579851873022
17760.0,675.7187135184743
17764.0,694.3673677940559
17768.0,712.1217676870425
17772.0,728.9026671514865
17776.0,744.6337661826421
17780.0,759.2417893799308
17784.0,772.6566402141967
17788.0,784.8116366206787
17792.0,795.6438299332841
17796.0,805.0944052948925
17800.0,813.1091576112351
17804.0,819.6390330650759
17808.0,824.6407225113512
17812.0,828.0772900869798
17816.0,829.9188182921697
17820.0,830.1430496435138
17824.0,828.7360046772556
17828.0,825.6925564909504
17832.0,821.0169430447531
17836.0,814.7231999822661
17840.0,806.8354986591903
17844.0,797.3883762817619
17848.0,786.4268474651989
17852.0,774.0063890471774
17856.0,760.1927925720523
17860.0,745.0618814567853
17864.0,728.6990924293927
17868.0,711.1989233663038
17872.0,692.6642521171376
17876.0,673.2055332682169
17880.0,652.9398820269132
17884.0,631.9900564489734
17888.0,610.4833510094023
17892.0,588.5504160066374
17896.0,566.324018530424
17900.0,543.9377617765617
17904.0,521.5247803804987
17908.0,499.2164301510261
17912.0,477.14099108530706
17916.0,455.42240280612816
17920.0,434.1790515493523
17924.0,413.52262750915213
17928.0,393.5570706852835
17932.0,374.3776223431758
17936.0,356.0699977831472
17940.0,338.70969432398977
17944.0,322.36144625086166
17948.0,307.07883597546817
17952.0,292.9040678353825
17956.0,279.86790786348627
17960.0,267.9897895498738
17964.0,257.27808216868686
17968.0,247.7305147276973
17972.0,239.33474510795634
17976.0,232.06906060437413
17980.0,225.90319298174322
17984.0,220.79922844942163
17988.0,216.7125907432001
17992.0,213.5930738896628
17996.0,211.38590033521558
18000.0,210.03278009101712
18004.0,209.47294750439272
18008.0,209.64415422901052
18012.0,210.48359974202802
18016.0,211.9287840243106
18020.0,213.9182704981701
18024.0,216.392350837856
18028.0,219.29360668940288
18032.0,222.56736647988342
18036.0,226.1620582216737
18040.0,230.02946150817215
18044.0,234.12486382248917
18048.0,238.40712790470914
18052.0,242.83867827568477
18056.0,247.38541609302032
18060.0,252.01657226869233
18064.0,256.7045091319744
18068.0,261.4244808640488
18072.0,266.15436256759256
18076.0,270.8743573186962
18080.0,275.56668998068693
18084.0,280.21529598397603
18088.0,284.80551273650997
18092.0,289.3237808786878
18096.0,293.7573622465479
18100.0,298.09408110117744
18104.0,302.32209482874975
18108.0,306.42969983925997
18112.0,310.4051777723439
18116.0,314.23668637792144
18120.0,317.9121985629642
18124.0,321.4194919791897
18128.0,324.74619006461563
18132.0,327.8798536866286
18136.0,330.8081206759806
18140.0,333.51888884210945
18144.0,336.00053668935436
18148.0,338.24217505995097
18152.0,340.23392226340013
18156.0,341.96719482326
18160.0,343.4350057289193
18164.0,344.63226203616716
18168.0,345.55605386216354
18172.0,346.20592729192737
18176.0,346.58413442204375
18180.0,346.69585461662143
18184.0,346.5493819184227
18188.0,346.15627435511595
18192.0,345.5314615749865
18196.0,344.6933078464745
18200.0,343.6636279855957
18204.0,342.4676542616679
18208.0,341.133952797093
18212.0,339.6942884331597
18216.0,338.18343748166706
18220.0,336.63894820904704
18224.0,335.10084927553834
18228.0,333.6113066559613
18232.0,332.21422985988335
18236.0,330.9548287009849
18240.0,329.87912256166635
18244.0,329.03340503060844
18248.0,328.46366782495187
18252.0,328.21498893090506
18256.0,328.3308908496118
18260.0,328.85267570805087
18264.0,329.81874484768366
18268.0,331.26391146499105
18272.0,333.21871604708167
18276.0,335.708755700698
18280.0,338.75403989850065
18284.0,342.36838651611004
18288.0,346.55887311876074
18292.0,351.32535903421143
18296.0,356.6600936117332
18300.0,362.54742515970815
18304.0,368.9636234715747
18308.0,375.8768267521895
18312.0,383.24712129746473
18316.0,391.0267595557179
18320.0,399.1605192459341
18324.0,407.5862030884713
18328.0,416.2352755898829
18332.0,425.0336304382792
18336.0,433.90247952300575
18340.0,442.7593523211724
18344.0,451.5191922099047
18348.0,460.09553399223057
18352.0,468.40174450016934
18356.0,476.35230568796516
18360.0,483.8641174703735
18364.0,490.85779604224035
18368.0,497.2589427099677
18372.0,502.9993583293626
18376.0,508.0181791240725
18380.0,512.2629108127733
18384.0,515.6903395325807
18388.0,518.2673000036933
18392.0,519.9712837398102
18396.0,520.7908728498143
18400.0,520.7259880563485
18404.0,519.7879429266842
18408.0,517.9992999199824
18412.0,515.3935276534534
18416.0,512.0144627337337
18420.0,507.9155835471671
18424.0,503.1591075014535
18428.0,497.81492728726687
18432.0,491.95940568797465
18436.0,485.6740521848659
18440.0,479.044107886789
18444.0,472.1570678802106
18448.0,465.1011716999542
18452.0,457.9638931655911
18456.0,450.8304603822735
18460.0,443.78243543965067
18464.0,436.89638147107894
18468.0,430.242642446167
18472.0,423.884258468521
18476.0,417.8760364535381
18480.0,412.26379283715033
18484.0,407.08378138060306
18488.0,402.36231518652323
18492.0,398.1155878156074
18496.0,394.34969410785504
18500.0,391.0608472457119
18504.0,388.2357849473969
18508.0,385.8523544946962
18512.0,383.8802635252425
18516.0,382.28198107490476
18520.0,381.0137711702595
18524.0,380.02683927667726
18528.0,379.2685700454146
18532.0,378.6838330593172
18536.0,378.2163317080584
18540.0,377.8099690361895
18544.0,377.4102035220063
18548.0,376.9653673944523
18552.0,376.42792042684545
18556.0,375.7556132900188
18560.0,374.9125365354257
18564.0,373.87003398845115
18568.0,372.60746253412435
18572.0,371.11278375231075
18576.0,369.3829764679918
18580.0,367.42426294975775
18584.0,365.25214516751026
18588.0,362.8912511721562
18592.0,360.3749952594574
18596.0,357.74505910112134
18600.0,355.0507044314747
18604.0,352.34793111750594
18608.0,349.69849745636037
18612.0,347.16882227784225
18616.0,344.828790817345
18620.0,342.75048829632533
18624.0,341.0068866235025
18628.0,339.6705105285761
18632.0,338.81210968469725
18636.0,338.4993628946462
18640.0,338.79563915667467
18644.0,339.7588384248502
18648.0,341.44033232721347
18652.0,343.8840222922248
18656.0,347.1255296791954
18660.0,351.19152967094726
18664.0,356.09923782620984
18668.0,361.85605526566377
18672.0,368.45937549073903
18676.0,375.896552876914
18680.0,384.1450300509026
18684.0,393.17261876423527
18688.0,402.9379265941038
18692.0,413.39091987263663
18696.0,424.4736116623622
18700.0,436.12086231717404
18704.0,448.2612791368874
18708.0,460.81820078709507
18712.0,473.7107514774172
18716.0,486.85494935732754
18720.0,500.1648532139974
18724.0,513.5537313646772
18728.0,526.9352366398491
18732.0,540.2245715550672
18736.0,553.3396281598376
18740.0,566.202087596881
18744.0,578.7384650519631
