time,value
0.0,93.0
4.0,93.0
8.0,93.0
12.0,95.0
16.0,93.0
20.0,92.0
24.0,95.0
28.0,94.0
32.0,253.0
36.0,511.0
40.0,509.0
44.0,506.0
48.0,502.0
52.0,497.0
56.0,491.0
60.0,481.0
64.0,479.0
68.0,475.0
72.0,473.0
76.0,465.0
80.0,464.0
84.0,464.0
88.0,464.0
92.0,464.0
96.0,469.0
100.0,478.0
104.0,480.0
108.0,483.0
112.0,487.0
116.0,498.0
120.0,511.0
124.0,526.0
128.0,530.0
132.0,554.0
136.0,560.0
140.0,567.0
144.0,590.0
148.0,603.0
152.0,612.0
156.0,637.0
160.0,650.0
164.0,659.0
168.0,667.0
172.0,672.0
176.0,678.0
180.0,683.0
184.0,688.0
188.0,691.0
192.0,690.0
196.0,692.0
200.0,690.0
204.0,676.0
208.0,685.0
212.0,681.0
216.0,674.0
220.0,671.0
224.0,663.0
228.0,656.0
232.0,644.0
236.0,641.0
240.0,633.0
244.0,629.0
248.0,626.0
252.0,623.0
256.0,619.0
260.0,619.0
264.0,621.0
268.0,619.0
272.0,616.0
276.0,619.0
280.0,619.0
284.0,623.0
288.0,625.0
292.0,629.0
296.0,633.0
300.0,638.0
304.0,644.0
308.0,647.0
312.0,655.0
316.0,661.0
320.0,671.0
324.0,682.0
328.0,691.0
332.0,699.0
336.0,706.0
340.0,720.0
344.0,723.0
348.0,734.0
352.0,746.0
356.0,752.0
360.0,755.0
364.0,771.0
368.0,775.0
372.0,782.0
376.0,784.0
380.0,788.0
384.0,757.0
388.0,730.0
392.0,742.0
396.0,748.0
400.0,754.0
404.0,763.0
408.0,773.0
412.0,781.0
416.0,785.0
420.0,797.0
424.0,809.0
428.0,816.0
432.0,823.0
436.0,834.0
440.0,844.0
444.0,856.0
448.0,865.0
452.0,879.0
456.0,881.0
460.0,894.0
464.0,902.0
468.0,912.0
472.0,921.0
476.0,931.0
480.0,938.0
484.0,945.0
488.0,955.0
492.0,961.0
496.0,963.0
500.0,973.0
504.0,975.0
508.0,976.0
512.0,982.0
516.0,985.0
520.0,988.0
524.0,987.0
528.0,987.0
532.0,987.0
536.0,981.0
540.0,983.0
544.0,975.0
548.0,971.0
552.0,966.0
556.0,961.0
560.0,958.0
564.0,951.0
568.0,944.0
572.0,931.0
576.0,922.0
580.0,921.0
584.0,913.0
588.0,900.0
592.0,891.0
596.0,903.0
600.0,887.0
604.0,883.0
608.0,882.0
612.0,883.0
616.0,886.0
620.0,887.0
624.0,891.0
628.0,896.0
632.0,897.0
636.0,125.0
640.0,124.0
644.0,114.0
648.0,115.0
652.0,116.0
656.0,992.0
660.0,976.0
664.0,969.0
668.0,965.0
672.0,959.0
676.0,954.0
680.0,951.0
684.0,955.0
688.0,977.0
692.0,999.0
696.0,771.0
700.0,757.0
704.0,760.0
708.0,720.0
712.0,704.0
716.0,689.0
720.0,672.0
724.0,782.0
728.0,652.0
732.0,631.0
736.0,743.0
740.0,602.0
744.0,586.0
748.0,580.0
752.0,579.0
756.0,575.0
760.0,573.0
764.0,751.0
768.0,576.0
772.0,578.0
776.0,753.0
780.0,586.0
784.0,699.0
788.0,597.0
792.0,597.0
796.0,603.0
800.0,611.0
804.0,617.0
808.0,624.0
812.0,627.0
816.0,816.0
820.0,633.0
824.0,639.0
828.0,821.0
832.0,640.0
836.0,799.0
840.0,646.0
844.0,639.0
848.0,631.0
852.0,769.0
856.0,621.0
860.0,608.0
864.0,603.0
868.0,803.0
872.0,589.0
876.0,577.0
880.0,623.0
884.0,555.0
888.0,541.0
892.0,715.0
896.0,525.0
900.0,502.0
904.0,681.0
908.0,486.0
912.0,470.0
916.0,608.0
920.0,451.0
924.0,440.0
928.0,411.0
932.0,612.0
936.0,401.0
940.0,397.0
944.0,593.0
948.0,393.0
952.0,585.0
956.0,394.0
960.0,403.0
964.0,414.0
968.0,410.0
972.0,426.0
976.0,436.0
980.0,457.0
984.0,463.0
988.0,478.0
992.0,476.0
996.0,483.0
1000.0,495.0
1004.0,493.0
1008.0,498.0
1012.0,519.0
1016.0,496.0
1020.0,509.0
1024.0,510.0
1028.0,508.0
1032.0,509.0
1036.0,511.0
1040.0,501.0
1044.0,503.0
1048.0,511.0
1052.0,491.0
1056.0,482.0
1060.0,475.0
1064.0,464.0
1068.0,458.0
1072.0,318.0
1076.0,331.0
1080.0,410.0
1084.0,347.0
1088.0,351.0
1092.0,358.0
1096.0,363.0
1100.0,368.0
1104.0,363.0
1108.0,406.0
1112.0,354.0
1116.0,558.0
1120.0,342.0
1124.0,529.0
1128.0,322.0
1132.0,486.0
1136.0,304.0
1140.0,464.0
1144.0,266.0
1148.0,462.0
1152.0,242.0
1156.0,432.0
1160.0,223.0
1164.0,210.0
1168.0,206.0
1172.0,194.0
1176.0,357.0
1180.0,181.0
1184.0,176.0
1188.0,383.0
1192.0,171.0
1196.0,171.0
1200.0,176.0
1204.0,167.0
1208.0,372.0
1212.0,176.0
1216.0,178.0
1220.0,195.0
1224.0,190.0
1228.0,195.0
1232.0,212.0
1236.0,209.0
1240.0,331.0
1244.0,233.0
1248.0,234.0
1252.0,433.0
1256.0,256.0
1260.0,263.0
1264.0,458.0
1268.0,278.0
1272.0,290.0
1276.0,499.0
1280.0,301.0
1284.0,306.0
1288.0,316.0
1292.0,314.0
1296.0,401.0
1300.0,331.0
1304.0,322.0
1308.0,405.0
1312.0,321.0
1316.0,319.0
1320.0,306.0
1324.0,308.0
1328.0,400.0
1332.0,299.0
1336.0,288.0
1340.0,448.0
1344.0,272.0
1348.0,442.0
1352.0,385.0
1356.0,300.0
1360.0,315.0
1364.0,327.0
1368.0,336.0
1372.0,346.0
1376.0,353.0
1380.0,368.0
1384.0,373.0
1388.0,383.0
1392.0,387.0
1396.0,397.0
1400.0,396.0
1404.0,399.0
1408.0,400.0
1412.0,399.0
1416.0,400.0
1420.0,398.0
1424.0,395.0
1428.0,392.0
1432.0,386.0
1436.0,385.0
1440.0,379.0
1444.0,375.0
1448.0,368.0
1452.0,363.0
1456.0,358.0
1460.0,353.0
1464.0,349.0
1468.0,342.0
1472.0,339.0
1476.0,336.0
1480.0,334.0
1484.0,330.0
1488.0,331.0
1492.0,326.0
1496.0,327.0
1500.0,326.0
1504.0,330.0
1508.0,331.0
1512.0,336.0
1516.0,337.0
1520.0,339.0
1524.0,350.0
1528.0,352.0
1532.0,359.0
1536.0,369.0
1540.0,374.0
1544.0,384.0
1548.0,393.0
1552.0,401.0
1556.0,415.0
1560.0,420.0
1564.0,432.0
1568.0,448.0
1572.0,459.0
1576.0,467.0
1580.0,478.0
1584.0,496.0
1588.0,507.0
1592.0,527.0
1596.0,537.0
1600.0,552.0
1604.0,561.0
1608.0,575.0
1612.0,585.0
1616.0,595.0
1620.0,608.0
1624.0,619.0
1628.0,624.0
1632.0,631.0
1636.0,639.0
1640.0,641.0
1644.0,642.0
1648.0,646.0
1652.0,643.0
1656.0,643.0
1660.0,640.0
1664.0,638.0
1668.0,635.0
1672.0,625.0
1676.0,621.0
1680.0,617.0
1684.0,610.0
1688.0,605.0
1692.0,597.0
1696.0,593.0
1700.0,591.0
1704.0,586.0
1708.0,584.0
1712.0,578.0
1716.0,579.0
1720.0,581.0
1724.0,582.0
1728.0,583.0
1732.0,589.0
1736.0,593.0
1740.0,597.0
1744.0,604.0
1748.0,615.0
1752.0,624.0
1756.0,635.0
1760.0,640.0
1764.0,653.0
1768.0,663.0
1772.0,677.0
1776.0,688.0
1780.0,700.0
1784.0,825.0
1788.0,869.0
1792.0,868.0
1796.0,867.0
1800.0,867.0
1804.0,870.0
1808.0,871.0
1812.0,877.0
1816.0,880.0
1820.0,880.0
1824.0,890.0
1828.0,897.0
1832.0,908.0
1836.0,913.0
1840.0,923.0
1844.0,935.0
1848.0,946.0
1852.0,960.0
1856.0,969.0
1860.0,979.0
1864.0,998.0
1868.0,241.0
1872.0,245.0
1876.0,608.0
1880.0,673.0
1884.0,702.0
1888.0,771.0
1892.0,755.0
1896.0,784.0
1900.0,816.0
1904.0,835.0
1908.0,900.0
1912.0,929.0
1916.0,961.0
1920.0,980.0
1924.0,139.0
1928.0,149.0
1932.0,143.0
1936.0,790.0
1940.0,171.0
1944.0,173.0
1948.0,183.0
1952.0,191.0
1956.0,190.0
1960.0,212.0
1964.0,214.0
1968.0,216.0
1972.0,239.0
1976.0,240.0
1980.0,249.0
1984.0,249.0
1988.0,249.0
1992.0,505.0
1996.0,265.0
2000.0,267.0
2004.0,249.0
2008.0,512.0
2012.0,280.0
2016.0,280.0
2020.0,522.0
2024.0,464.0
2028.0,432.0
2032.0,595.0
2036.0,351.0
2040.0,320.0
2044.0,292.0
2048.0,251.0
2052.0,261.0
2056.0,195.0
2060.0,368.0
2064.0,132.0
2068.0,314.0
2072.0,98.0
2076.0,95.0
2080.0,98.0
2084.0,93.0
2088.0,146.0
2092.0,95.0
2096.0,97.0
2100.0,108.0
2104.0,97.0
2108.0,144.0
2112.0,94.0
2116.0,245.0
2120.0,95.0
2124.0,97.0
2128.0,80.0
2132.0,93.0
2136.0,305.0
2140.0,91.0
2144.0,97.0
2148.0,97.0
2152.0,94.0
2156.0,101.0
2160.0,93.0
2164.0,97.0
2168.0,97.0
2172.0,99.0
2176.0,304.0
2180.0,95.0
2184.0,96.0
2188.0,99.0
2192.0,94.0
2196.0,96.0
2200.0,99.0
2204.0,96.0
2208.0,112.0
2212.0,94.0
2216.0,304.0
2220.0,95.0
2224.0,97.0
2228.0,97.0
2232.0,94.0
2236.0,304.0
2240.0,95.0
2244.0,96.0
2248.0,96.0
2252.0,93.0
2256.0,97.0
2260.0,95.0
2264.0,301.0
2268.0,95.0
2272.0,95.0
2276.0,101.0
2280.0,94.0
2284.0,95.0
2288.0,98.0
2292.0,95.0
2296.0,304.0
2300.0,96.0
2304.0,91.0
2308.0,167.0
2312.0,92.0
2316.0,97.0
2320.0,96.0
2324.0,94.0
2328.0,304.0
2332.0,95.0
2336.0,96.0
2340.0,110.0
2344.0,97.0
2348.0,96.0
2352.0,115.0
2356.0,94.0
2360.0,93.0
2364.0,97.0
2368.0,94.0
2372.0,301.0
2376.0,131.0
2380.0,96.0
2384.0,288.0
2388.0,95.0
2392.0,93.0
2396.0,94.0
2400.0,92.0
2404.0,95.0
2408.0,94.0
2412.0,95.0
2416.0,93.0
2420.0,94.0
2424.0,95.0
2428.0,96.0
2432.0,128.0
2436.0,154.0
2440.0,190.0
2444.0,227.0
2448.0,290.0
2452.0,327.0
2456.0,371.0
2460.0,430.0
2464.0,496.0
2468.0,573.0
2472.0,637.0
2476.0,709.0
2480.0,765.0
2484.0,816.0
2488.0,870.0
2492.0,945.0
2496.0,998.0
2500.0,241.0
2504.0,999.0
2508.0,985.0
2512.0,912.0
2516.0,683.0
2520.0,652.0
2524.0,642.0
2528.0,624.0
2532.0,609.0
2536.0,577.0
2540.0,561.0
2544.0,542.0
2548.0,506.0
2552.0,482.0
2556.0,476.0
2560.0,465.0
2564.0,459.0
2568.0,450.0
2572.0,447.0
2576.0,438.0
2580.0,434.0
2584.0,435.0
2588.0,435.0
2592.0,435.0
2596.0,437.0
2600.0,445.0
2604.0,449.0
2608.0,456.0
2612.0,464.0
2616.0,475.0
2620.0,488.0
2624.0,496.0
2628.0,507.0
2632.0,511.0
2636.0,528.0
2640.0,543.0
2644.0,547.0
2648.0,559.0
2652.0,571.0
2656.0,577.0
2660.0,582.0
2664.0,592.0
2668.0,596.0
2672.0,604.0
2676.0,610.0
2680.0,612.0
2684.0,611.0
2688.0,608.0
2692.0,607.0
2696.0,597.0
2700.0,591.0
2704.0,581.0
2708.0,572.0
2712.0,558.0
2716.0,535.0
2720.0,511.0
2724.0,506.0
2728.0,498.0
2732.0,487.0
2736.0,481.0
2740.0,474.0
2744.0,467.0
2748.0,464.0
2752.0,459.0
2756.0,457.0
2760.0,452.0
2764.0,453.0
2768.0,454.0
2772.0,457.0
2776.0,462.0
2780.0,464.0
2784.0,471.0
2788.0,477.0
2792.0,485.0
2796.0,496.0
2800.0,527.0
2804.0,525.0
2808.0,535.0
2812.0,550.0
2816.0,564.0
2820.0,582.0
2824.0,592.0
2828.0,606.0
2832.0,619.0
2836.0,720.0
2840.0,659.0
2844.0,658.0
2848.0,658.0
2852.0,662.0
2856.0,666.0
2860.0,672.0
2864.0,681.0
2868.0,688.0
2872.0,702.0
2876.0,720.0
2880.0,729.0
2884.0,753.0
2888.0,784.0
2892.0,816.0
2896.0,833.0
2900.0,859.0
2904.0,887.0
2908.0,913.0
2912.0,944.0
2916.0,957.0
2920.0,979.0
2924.0,194.0
2928.0,196.0
2932.0,198.0
2936.0,283.0
2940.0,276.0
2944.0,275.0
2948.0,275.0
2952.0,206.0
2956.0,183.0
2960.0,183.0
2964.0,999.0
2968.0,101.0
2972.0,123.0
2976.0,104.0
2980.0,976.0
2984.0,814.0
2988.0,813.0
2992.0,927.0
2996.0,104.0
3000.0,104.0
3004.0,103.0
3008.0,176.0
3012.0,177.0
3016.0,180.0
3020.0,217.0
3024.0,216.0
3028.0,212.0
3032.0,232.0
3036.0,253.0
3040.0,258.0
3044.0,404.0
3048.0,404.0
3052.0,404.0
3056.0,943.0
3060.0,218.0
3064.0,225.0
3068.0,473.0
3072.0,250.0
3076.0,250.0
3080.0,675.0
3084.0,279.0
3088.0,298.0
3092.0,280.0
3096.0,255.0
3100.0,277.0
3104.0,253.0
3108.0,487.0
3112.0,197.0
3116.0,215.0
3120.0,940.0
3124.0,254.0
3128.0,258.0
3132.0,343.0
3136.0,343.0
3140.0,278.0
3144.0,279.0
3148.0,149.0
3152.0,150.0
3156.0,157.0
3160.0,147.0
3164.0,144.0
3168.0,994.0
3172.0,993.0
3176.0,999.0
3180.0,999.0
3184.0,125.0
3188.0,136.0
3192.0,138.0
3196.0,941.0
3200.0,866.0
3204.0,807.0
3208.0,739.0
3212.0,660.0
3216.0,605.0
3220.0,535.0
3224.0,470.0
3228.0,403.0
3232.0,368.0
3236.0,318.0
3240.0,284.0
3244.0,253.0
3248.0,220.0
3252.0,202.0
3256.0,186.0
3260.0,173.0
3264.0,176.0
3268.0,190.0
3272.0,210.0
3276.0,263.0
3280.0,334.0
3284.0,382.0
3288.0,472.0
3292.0,551.0
3296.0,627.0
3300.0,714.0
3304.0,791.0
3308.0,902.0
3312.0,974.0
3316.0,250.0
3320.0,250.0
3324.0,267.0
3328.0,277.0
3332.0,280.0
3336.0,928.0
3340.0,404.0
3344.0,405.0
3348.0,405.0
3352.0,177.0
3356.0,171.0
3360.0,167.0
3364.0,261.0
3368.0,261.0
3372.0,286.0
3376.0,289.0
3380.0,295.0
3384.0,284.0
3388.0,287.0
3392.0,275.0
3396.0,273.0
3400.0,284.0
3404.0,288.0
3408.0,295.0
3412.0,961.0
3416.0,899.0
3420.0,784.0
3424.0,727.0
3428.0,662.0
3432.0,573.0
3436.0,704.0
3440.0,446.0
3444.0,413.0
3448.0,461.0
3452.0,386.0
3456.0,389.0
3460.0,410.0
3464.0,421.0
3468.0,444.0
3472.0,451.0
3476.0,496.0
3480.0,527.0
3484.0,769.0
3488.0,563.0
3492.0,781.0
3496.0,594.0
3500.0,812.0
3504.0,615.0
3508.0,641.0
3512.0,635.0
3516.0,851.0
3520.0,656.0
3524.0,698.0
3528.0,666.0
3532.0,717.0
3536.0,685.0
3540.0,691.0
3544.0,707.0
3548.0,790.0
3552.0,725.0
3556.0,739.0
3560.0,752.0
3564.0,767.0
3568.0,784.0
3572.0,798.0
3576.0,816.0
3580.0,843.0
3584.0,855.0
3588.0,875.0
3592.0,900.0
3596.0,917.0
3600.0,937.0
3604.0,967.0
3608.0,988.0
3612.0,249.0
3616.0,251.0
3620.0,239.0
3624.0,238.0
3628.0,248.0
3632.0,264.0
3636.0,262.0
3640.0,590.0
3644.0,236.0
3648.0,235.0
3652.0,234.0
3656.0,403.0
3660.0,403.0
3664.0,403.0
3668.0,157.0
3672.0,145.0
3676.0,153.0
3680.0,939.0
3684.0,910.0
3688.0,848.0
3692.0,629.0
3696.0,661.0
3700.0,670.0
3704.0,697.0
3708.0,721.0
3712.0,734.0
3716.0,758.0
3720.0,791.0
3724.0,807.0
3728.0,833.0
3732.0,869.0
3736.0,880.0
3740.0,901.0
3744.0,954.0
3748.0,973.0
3752.0,210.0
3756.0,116.0
3760.0,115.0
3764.0,131.0
3768.0,135.0
3772.0,147.0
3776.0,181.0
3780.0,162.0
3784.0,164.0
3788.0,175.0
3792.0,176.0
3796.0,201.0
3800.0,191.0
3804.0,168.0
3808.0,166.0
3812.0,163.0
3816.0,160.0
3820.0,184.0
3824.0,167.0
3828.0,150.0
3832.0,152.0
3836.0,159.0
3840.0,173.0
3844.0,173.0
3848.0,175.0
3852.0,233.0
3856.0,242.0
3860.0,247.0
3864.0,332.0
3868.0,336.0
3872.0,195.0
3876.0,175.0
3880.0,162.0
3884.0,973.0
3888.0,784.0
3892.0,576.0
3896.0,569.0
3900.0,565.0
3904.0,561.0
3908.0,560.0
3912.0,558.0
3916.0,560.0
3920.0,559.0
3924.0,560.0
3928.0,562.0
3932.0,569.0
3936.0,576.0
3940.0,580.0
3944.0,592.0
3948.0,598.0
3952.0,609.0
3956.0,624.0
3960.0,635.0
3964.0,649.0
3968.0,665.0
3972.0,685.0
3976.0,703.0
3980.0,727.0
3984.0,746.0
3988.0,763.0
3992.0,784.0
3996.0,816.0
4000.0,833.0
4004.0,859.0
4008.0,890.0
4012.0,911.0
4016.0,940.0
4020.0,967.0
4024.0,994.0
4028.0,123.0
4032.0,123.0
4036.0,116.0
4040.0,163.0
4044.0,152.0
4048.0,999.0
4052.0,999.0
4056.0,955.0
4060.0,979.0
4064.0,963.0
4068.0,947.0
4072.0,924.0
4076.0,909.0
4080.0,896.0
4084.0,873.0
4088.0,861.0
4092.0,847.0
4096.0,832.0
4100.0,823.0
4104.0,816.0
4108.0,814.0
4112.0,807.0
4116.0,805.0
4120.0,807.0
4124.0,814.0
4128.0,817.0
4132.0,826.0
4136.0,838.0
4140.0,848.0
4144.0,858.0
4148.0,880.0
4152.0,887.0
4156.0,899.0
4160.0,919.0
4164.0,932.0
4168.0,944.0
4172.0,965.0
4176.0,976.0
4180.0,981.0
4184.0,985.0
4188.0,977.0
4192.0,960.0
4196.0,946.0
4200.0,942.0
4204.0,925.0
4208.0,912.0
4212.0,904.0
4216.0,893.0
4220.0,880.0
4224.0,877.0
4228.0,866.0
4232.0,862.0
4236.0,857.0
4240.0,856.0
4244.0,853.0
4248.0,854.0
4252.0,864.0
4256.0,874.0
4260.0,887.0
4264.0,907.0
4268.0,925.0
4272.0,954.0
4276.0,982.0
4280.0,955.0
4284.0,869.0
4288.0,754.0
4292.0,670.0
4296.0,791.0
4300.0,506.0
4304.0,462.0
4308.0,403.0
4312.0,337.0
4316.0,303.0
4320.0,263.0
4324.0,226.0
4328.0,207.0
4332.0,192.0
4336.0,179.0
4340.0,167.0
4344.0,165.0
4348.0,163.0
4352.0,171.0
4356.0,194.0
4360.0,192.0
4364.0,206.0
4368.0,223.0
4372.0,247.0
4376.0,270.0
4380.0,285.0
4384.0,313.0
4388.0,346.0
4392.0,379.0
4396.0,415.0
4400.0,431.0
4404.0,454.0
4408.0,483.0
4412.0,534.0
4416.0,564.0
4420.0,596.0
4424.0,618.0
4428.0,659.0
4432.0,688.0
4436.0,711.0
4440.0,733.0
4444.0,772.0
4448.0,791.0
4452.0,813.0
4456.0,832.0
4460.0,852.0
4464.0,870.0
4468.0,881.0
4472.0,913.0
4476.0,927.0
4480.0,935.0
4484.0,944.0
4488.0,954.0
4492.0,959.0
4496.0,960.0
4500.0,960.0
4504.0,966.0
4508.0,971.0
4512.0,973.0
4516.0,975.0
4520.0,975.0
4524.0,976.0
4528.0,977.0
4532.0,978.0
4536.0,983.0
4540.0,987.0
4544.0,991.0
4548.0,996.0
4552.0,168.0
4556.0,163.0
4560.0,214.0
4564.0,216.0
4568.0,219.0
4572.0,234.0
4576.0,164.0
4580.0,162.0
4584.0,486.0
4588.0,179.0
4592.0,177.0
4596.0,176.0
4600.0,172.0
4604.0,151.0
4608.0,401.0
4612.0,401.0
4616.0,398.0
4620.0,240.0
4624.0,211.0
4628.0,242.0
4632.0,118.0
4636.0,304.0
4640.0,96.0
4644.0,97.0
4648.0,101.0
4652.0,106.0
4656.0,94.0
4660.0,95.0
4664.0,298.0
4668.0,97.0
4672.0,95.0
4676.0,300.0
4680.0,94.0
4684.0,97.0
4688.0,300.0
4692.0,112.0
4696.0,128.0
4700.0,302.0
4704.0,622.0
4708.0,608.0
4712.0,800.0
4716.0,598.0
4720.0,591.0
4724.0,783.0
4728.0,576.0
4732.0,571.0
4736.0,771.0
4740.0,560.0
4744.0,554.0
4748.0,555.0
4752.0,544.0
4756.0,735.0
4760.0,540.0
4764.0,533.0
4768.0,738.0
4772.0,545.0
4776.0,538.0
4780.0,594.0
4784.0,544.0
4788.0,549.0
4792.0,609.0
4796.0,560.0
4800.0,564.0
4804.0,634.0
4808.0,578.0
4812.0,587.0
4816.0,656.0
4820.0,604.0
4824.0,619.0
4828.0,633.0
4832.0,638.0
4836.0,662.0
4840.0,819.0
4844.0,693.0
4848.0,704.0
4852.0,917.0
4856.0,724.0
4860.0,941.0
4864.0,736.0
4868.0,731.0
4872.0,735.0
4876.0,762.0
4880.0,729.0
4884.0,720.0
4888.0,710.0
4892.0,912.0
4896.0,702.0
4900.0,754.0
4904.0,661.0
4908.0,642.0
4912.0,629.0
4916.0,817.0
4920.0,603.0
4924.0,592.0
4928.0,565.0
4932.0,565.0
4936.0,762.0
4940.0,549.0
4944.0,545.0
4948.0,741.0
4952.0,534.0
4956.0,511.0
4960.0,729.0
4964.0,537.0
4968.0,528.0
4972.0,718.0
4976.0,539.0
4980.0,533.0
4984.0,737.0
4988.0,550.0
4992.0,545.0
4996.0,754.0
5000.0,564.0
5004.0,572.0
5008.0,783.0
5012.0,598.0
5016.0,601.0
5020.0,709.0
5024.0,647.0
5028.0,838.0
5032.0,627.0
5036.0,618.0
5040.0,818.0
5044.0,611.0
5048.0,593.0
5052.0,595.0
5056.0,579.0
5060.0,589.0
5064.0,576.0
5068.0,571.0
5072.0,767.0
5076.0,574.0
5080.0,571.0
5084.0,786.0
5088.0,581.0
5092.0,786.0
5096.0,595.0
5100.0,605.0
5104.0,829.0
5108.0,626.0
5112.0,637.0
5116.0,656.0
5120.0,659.0
5124.0,876.0
5128.0,691.0
5132.0,700.0
5136.0,912.0
5140.0,723.0
5144.0,741.0
5148.0,757.0
5152.0,768.0
5156.0,866.0
5160.0,785.0
5164.0,794.0
5168.0,803.0
5172.0,804.0
5176.0,816.0
5180.0,809.0
5184.0,800.0
5188.0,788.0
5192.0,901.0
5196.0,760.0
5200.0,946.0
5204.0,737.0
5208.0,721.0
5212.0,708.0
5216.0,690.0
5220.0,681.0
5224.0,662.0
5228.0,860.0
5232.0,646.0
5236.0,841.0
5240.0,628.0
5244.0,760.0
5248.0,625.0
5252.0,825.0
5256.0,632.0
5260.0,842.0
5264.0,654.0
5268.0,869.0
5272.0,682.0
5276.0,695.0
5280.0,717.0
5284.0,740.0
5288.0,753.0
5292.0,783.0
5296.0,796.0
5300.0,828.0
5304.0,848.0
5308.0,869.0
5312.0,890.0
5316.0,909.0
5320.0,924.0
5324.0,944.0
5328.0,959.0
5332.0,966.0
5336.0,978.0
5340.0,992.0
5344.0,999.0
5348.0,976.0
5352.0,182.0
5356.0,179.0
5360.0,198.0
5364.0,173.0
5368.0,175.0
5372.0,168.0
5376.0,167.0
5380.0,206.0
5384.0,208.0
5388.0,210.0
5392.0,211.0
5396.0,112.0
5400.0,198.0
5404.0,197.0
5408.0,232.0
5412.0,232.0
5416.0,211.0
5420.0,212.0
5424.0,211.0
5428.0,211.0
5432.0,255.0
5436.0,943.0
5440.0,857.0
5444.0,819.0
5448.0,768.0
5452.0,720.0
5456.0,688.0
5460.0,655.0
5464.0,622.0
5468.0,597.0
5472.0,576.0
5476.0,562.0
5480.0,555.0
5484.0,544.0
5488.0,543.0
5492.0,542.0
5496.0,544.0
5500.0,555.0
5504.0,564.0
5508.0,575.0
5512.0,587.0
5516.0,607.0
5520.0,624.0
5524.0,637.0
5528.0,653.0
5532.0,663.0
5536.0,683.0
5540.0,695.0
5544.0,709.0
5548.0,726.0
5552.0,739.0
5556.0,752.0
5560.0,765.0
5564.0,779.0
5568.0,786.0
5572.0,804.0
5576.0,815.0
5580.0,823.0
5584.0,827.0
5588.0,837.0
5592.0,848.0
5596.0,851.0
5600.0,859.0
5604.0,873.0
5608.0,880.0
5612.0,885.0
5616.0,895.0
5620.0,899.0
5624.0,909.0
5628.0,915.0
5632.0,927.0
5636.0,937.0
5640.0,953.0
5644.0,961.0
5648.0,980.0
5652.0,998.0
5656.0,112.0
5660.0,152.0
5664.0,168.0
5668.0,146.0
5672.0,145.0
5676.0,168.0
5680.0,175.0
5684.0,155.0
5688.0,168.0
5692.0,219.0
5696.0,221.0
5700.0,226.0
5704.0,230.0
5708.0,251.0
5712.0,253.0
5716.0,254.0
5720.0,231.0
5724.0,231.0
5728.0,249.0
5732.0,248.0
5736.0,227.0
5740.0,228.0
5744.0,206.0
5748.0,207.0
5752.0,235.0
5756.0,235.0
5760.0,404.0
5764.0,988.0
5768.0,953.0
5772.0,927.0
5776.0,903.0
5780.0,889.0
5784.0,873.0
5788.0,862.0
5792.0,850.0
5796.0,847.0
5800.0,834.0
5804.0,832.0
5808.0,829.0
5812.0,825.0
5816.0,827.0
5820.0,827.0
5824.0,830.0
5828.0,833.0
5832.0,841.0
5836.0,848.0
5840.0,853.0
5844.0,869.0
5848.0,880.0
5852.0,896.0
5856.0,911.0
5860.0,930.0
5864.0,946.0
5868.0,970.0
5872.0,997.0
5876.0,196.0
5880.0,198.0
5884.0,217.0
5888.0,217.0
5892.0,243.0
5896.0,264.0
5900.0,262.0
5904.0,261.0
5908.0,209.0
5912.0,211.0
5916.0,236.0
5920.0,238.0
5924.0,240.0
5928.0,241.0
5932.0,248.0
5936.0,229.0
5940.0,227.0
5944.0,239.0
5948.0,238.0
5952.0,231.0
5956.0,232.0
5960.0,398.0
5964.0,228.0
5968.0,226.0
5972.0,225.0
5976.0,243.0
5980.0,246.0
5984.0,226.0
5988.0,227.0
5992.0,229.0
5996.0,232.0
6000.0,232.0
6004.0,208.0
6008.0,210.0
6012.0,211.0
6016.0,211.0
6020.0,205.0
6024.0,208.0
6028.0,209.0
6032.0,193.0
6036.0,401.0
6040.0,401.0
6044.0,265.0
6048.0,903.0
6052.0,896.0
6056.0,892.0
6060.0,887.0
6064.0,880.0
6068.0,846.0
6072.0,112.0
6076.0,116.0
6080.0,146.0
6084.0,145.0
6088.0,423.0
6092.0,206.0
6096.0,206.0
6100.0,222.0
6104.0,243.0
6108.0,241.0
6112.0,245.0
6116.0,244.0
6120.0,227.0
6124.0,224.0
6128.0,208.0
6132.0,219.0
6136.0,184.0
6140.0,184.0
6144.0,196.0
6148.0,200.0
6152.0,203.0
6156.0,217.0
6160.0,222.0
6164.0,224.0
6168.0,222.0
6172.0,220.0
6176.0,224.0
6180.0,225.0
6184.0,217.0
6188.0,218.0
6192.0,219.0
6196.0,200.0
6200.0,199.0
6204.0,234.0
6208.0,212.0
6212.0,185.0
6216.0,203.0
6220.0,883.0
6224.0,167.0
6228.0,185.0
6232.0,163.0
6236.0,167.0
6240.0,169.0
6244.0,158.0
6248.0,148.0
6252.0,151.0
6256.0,153.0
6260.0,155.0
6264.0,140.0
6268.0,139.0
6272.0,139.0
6276.0,169.0
6280.0,169.0
6284.0,172.0
6288.0,173.0
6292.0,163.0
6296.0,166.0
6300.0,743.0
6304.0,160.0
6308.0,158.0
6312.0,155.0
6316.0,317.0
6320.0,334.0
6324.0,379.0
6328.0,372.0
6332.0,359.0
6336.0,101.0
6340.0,299.0
6344.0,179.0
6348.0,169.0
6352.0,307.0
6356.0,304.0
6360.0,289.0
6364.0,282.0
6368.0,281.0
6372.0,279.0
6376.0,277.0
6380.0,279.0
6384.0,282.0
6388.0,285.0
6392.0,396.0
6396.0,671.0
6400.0,672.0
6404.0,673.0
6408.0,673.0
6412.0,675.0
6416.0,682.0
6420.0,678.0
6424.0,683.0
6428.0,688.0
6432.0,690.0
6436.0,699.0
6440.0,703.0
6444.0,709.0
6448.0,720.0
6452.0,735.0
6456.0,739.0
6460.0,746.0
6464.0,933.0
6468.0,768.0
6472.0,778.0
6476.0,979.0
6480.0,799.0
6484.0,813.0
6488.0,843.0
6492.0,855.0
6496.0,877.0
6500.0,912.0
6504.0,912.0
6508.0,944.0
6512.0,959.0
6516.0,973.0
6520.0,979.0
6524.0,995.0
6528.0,990.0
6532.0,998.0
6536.0,997.0
6540.0,991.0
6544.0,990.0
6548.0,976.0
6552.0,972.0
6556.0,960.0
6560.0,945.0
6564.0,912.0
6568.0,890.0
6572.0,931.0
6576.0,835.0
6580.0,817.0
6584.0,784.0
6588.0,783.0
6592.0,765.0
6596.0,752.0
6600.0,739.0
6604.0,728.0
6608.0,725.0
6612.0,719.0
6616.0,922.0
6620.0,717.0
6624.0,719.0
6628.0,726.0
6632.0,721.0
6636.0,856.0
6640.0,742.0
6644.0,761.0
6648.0,797.0
6652.0,731.0
6656.0,739.0
6660.0,750.0
6664.0,752.0
6668.0,848.0
6672.0,771.0
6676.0,902.0
6680.0,798.0
6684.0,805.0
6688.0,816.0
6692.0,829.0
6696.0,843.0
6700.0,858.0
6704.0,863.0
6708.0,886.0
6712.0,896.0
6716.0,907.0
6720.0,911.0
6724.0,918.0
6728.0,914.0
6732.0,915.0
6736.0,912.0
6740.0,912.0
6744.0,901.0
6748.0,887.0
6752.0,880.0
6756.0,874.0
6760.0,854.0
6764.0,993.0
6768.0,838.0
6772.0,821.0
6776.0,813.0
6780.0,795.0
6784.0,855.0
6788.0,777.0
6792.0,767.0
6796.0,758.0
6800.0,749.0
6804.0,745.0
6808.0,740.0
6812.0,727.0
6816.0,880.0
6820.0,721.0
6824.0,722.0
6828.0,729.0
6832.0,721.0
6836.0,933.0
6840.0,732.0
6844.0,735.0
6848.0,752.0
6852.0,960.0
6856.0,774.0
6860.0,911.0
6864.0,785.0
6868.0,812.0
6872.0,827.0
6876.0,841.0
6880.0,858.0
6884.0,889.0
6888.0,912.0
6892.0,914.0
6896.0,923.0
6900.0,896.0
6904.0,816.0
6908.0,779.0
6912.0,784.0
6916.0,810.0
6920.0,801.0
6924.0,815.0
6928.0,829.0
6932.0,833.0
6936.0,847.0
6940.0,867.0
6944.0,874.0
6948.0,887.0
6952.0,901.0
6956.0,911.0
6960.0,923.0
6964.0,943.0
6968.0,945.0
6972.0,959.0
6976.0,975.0
6980.0,976.0
6984.0,986.0
6988.0,998.0
6992.0,995.0
6996.0,989.0
7000.0,975.0
7004.0,963.0
7008.0,944.0
7012.0,919.0
7016.0,907.0
7020.0,899.0
7024.0,881.0
7028.0,849.0
7032.0,834.0
7036.0,827.0
7040.0,821.0
7044.0,814.0
7048.0,797.0
7052.0,806.0
7056.0,807.0
7060.0,816.0
7064.0,825.0
7068.0,830.0
7072.0,834.0
7076.0,849.0
7080.0,877.0
7084.0,891.0
7088.0,909.0
7092.0,929.0
7096.0,950.0
7100.0,990.0
7104.0,995.0
7108.0,109.0
7112.0,85.0
7116.0,913.0
7120.0,862.0
7124.0,803.0
7128.0,727.0
7132.0,666.0
7136.0,592.0
7140.0,544.0
7144.0,491.0
7148.0,448.0
7152.0,400.0
7156.0,364.0
7160.0,336.0
7164.0,300.0
7168.0,275.0
7172.0,257.0
7176.0,232.0
7180.0,218.0
7184.0,209.0
7188.0,211.0
7192.0,222.0
7196.0,244.0
7200.0,253.0
7204.0,279.0
7208.0,307.0
7212.0,325.0
7216.0,346.0
7220.0,368.0
7224.0,400.0
7228.0,436.0
7232.0,460.0
7236.0,487.0
7240.0,511.0
7244.0,551.0
7248.0,573.0
7252.0,594.0
7256.0,629.0
7260.0,651.0
7264.0,678.0
7268.0,688.0
7272.0,704.0
7276.0,725.0
7280.0,816.0
7284.0,933.0
7288.0,949.0
7292.0,965.0
7296.0,976.0
7300.0,987.0
7304.0,209.0
7308.0,212.0
7312.0,214.0
7316.0,233.0
7320.0,182.0
7324.0,184.0
7328.0,171.0
7332.0,171.0
7336.0,228.0
7340.0,225.0
7344.0,227.0
7348.0,210.0
7352.0,209.0
7356.0,208.0
7360.0,242.0
7364.0,243.0
7368.0,244.0
7372.0,244.0
7376.0,226.0
7380.0,225.0
7384.0,212.0
7388.0,203.0
7392.0,194.0
7396.0,217.0
7400.0,189.0
7404.0,135.0
7408.0,130.0
7412.0,130.0
7416.0,175.0
7420.0,333.0
7424.0,322.0
7428.0,939.0
7432.0,884.0
7436.0,995.0
7440.0,754.0
7444.0,676.0
7448.0,640.0
7452.0,580.0
7456.0,511.0
7460.0,430.0
7464.0,383.0
7468.0,330.0
7472.0,269.0
7476.0,247.0
7480.0,209.0
7484.0,177.0
7488.0,121.0
7492.0,97.0
7496.0,90.0
7500.0,93.0
7504.0,58.0
7508.0,93.0
7512.0,94.0
7516.0,99.0
7520.0,93.0
7524.0,94.0
7528.0,95.0
7532.0,93.0
7536.0,93.0
7540.0,95.0
7544.0,110.0
7548.0,257.0
7552.0,309.0
7556.0,336.0
7560.0,365.0
7564.0,390.0
7568.0,415.0
7572.0,447.0
7576.0,474.0
7580.0,497.0
7584.0,530.0
7588.0,549.0
7592.0,566.0
7596.0,580.0
7600.0,589.0
7604.0,602.0
7608.0,611.0
7612.0,615.0
7616.0,615.0
7620.0,612.0
7624.0,609.0
7628.0,605.0
7632.0,601.0
7636.0,592.0
7640.0,589.0
7644.0,585.0
7648.0,582.0
7652.0,581.0
7656.0,585.0
7660.0,587.0
7664.0,591.0
7668.0,592.0
7672.0,599.0
7676.0,613.0
7680.0,608.0
7684.0,627.0
7688.0,639.0
7692.0,652.0
7696.0,663.0
7700.0,677.0
7704.0,698.0
7708.0,714.0
7712.0,735.0
7716.0,752.0
7720.0,775.0
7724.0,792.0
7728.0,814.0
7732.0,831.0
7736.0,846.0
7740.0,874.0
7744.0,879.0
7748.0,885.0
7752.0,899.0
7756.0,912.0
7760.0,912.0
7764.0,919.0
7768.0,923.0
7772.0,925.0
7776.0,923.0
7780.0,922.0
7784.0,917.0
7788.0,915.0
7792.0,912.0
7796.0,909.0
7800.0,902.0
7804.0,887.0
7808.0,887.0
7812.0,882.0
7816.0,879.0
7820.0,874.0
7824.0,871.0
7828.0,864.0
7832.0,865.0
7836.0,865.0
7840.0,865.0
7844.0,877.0
7848.0,888.0
7852.0,161.0
7856.0,161.0
7860.0,575.0
7864.0,214.0
7868.0,212.0
7872.0,230.0
7876.0,243.0
7880.0,246.0
7884.0,246.0
7888.0,448.0
7892.0,215.0
7896.0,216.0
7900.0,242.0
7904.0,243.0
7908.0,224.0
7912.0,222.0
7916.0,227.0
7920.0,224.0
7924.0,233.0
7928.0,238.0
7932.0,237.0
7936.0,219.0
7940.0,218.0
7944.0,237.0
7948.0,234.0
7952.0,208.0
7956.0,213.0
7960.0,193.0
7964.0,194.0
7968.0,14.0
7972.0,94.0
7976.0,92.0
7980.0,94.0
7984.0,94.0
7988.0,93.0
7992.0,93.0
7996.0,94.0
8000.0,80.0
8004.0,94.0
8008.0,91.0
8012.0,95.0
8016.0,95.0
8020.0,95.0
8024.0,95.0
8028.0,94.0
8032.0,94.0
8036.0,93.0
8040.0,98.0
8044.0,112.0
8048.0,125.0
8052.0,141.0
8056.0,160.0
8060.0,176.0
8064.0,194.0
8068.0,215.0
8072.0,246.0
8076.0,275.0
8080.0,299.0
8084.0,323.0
8088.0,367.0
8092.0,443.0
8096.0,464.0
8100.0,485.0
8104.0,510.0
8108.0,554.0
8112.0,592.0
8116.0,605.0
8120.0,620.0
8124.0,635.0
8128.0,651.0
8132.0,659.0
8136.0,672.0
8140.0,675.0
8144.0,685.0
8148.0,688.0
8152.0,691.0
8156.0,694.0
8160.0,694.0
8164.0,698.0
8168.0,695.0
8172.0,701.0
8176.0,698.0
8180.0,697.0
8184.0,698.0
8188.0,697.0
8192.0,698.0
8196.0,697.0
8200.0,699.0
8204.0,702.0
8208.0,704.0
8212.0,705.0
8216.0,709.0
8220.0,718.0
8224.0,722.0
8228.0,733.0
8232.0,744.0
8236.0,747.0
8240.0,752.0
8244.0,758.0
8248.0,768.0
8252.0,778.0
8256.0,789.0
8260.0,810.0
8264.0,815.0
8268.0,829.0
8272.0,839.0
8276.0,845.0
8280.0,858.0
8284.0,878.0
8288.0,887.0
8292.0,906.0
8296.0,912.0
8300.0,919.0
8304.0,946.0
8308.0,961.0
8312.0,970.0
8316.0,977.0
8320.0,989.0
8324.0,995.0
8328.0,215.0
8332.0,220.0
8336.0,175.0
8340.0,190.0
8344.0,182.0
8348.0,200.0
8352.0,200.0
8356.0,200.0
8360.0,218.0
8364.0,219.0
8368.0,221.0
8372.0,234.0
8376.0,235.0
8380.0,239.0
8384.0,239.0
8388.0,218.0
8392.0,218.0
8396.0,166.0
8400.0,186.0
8404.0,168.0
8408.0,180.0
8412.0,181.0
8416.0,197.0
8420.0,197.0
8424.0,197.0
8428.0,220.0
8432.0,220.0
8436.0,219.0
8440.0,208.0
8444.0,222.0
8448.0,225.0
8452.0,848.0
8456.0,786.0
8460.0,750.0
8464.0,694.0
8468.0,668.0
8472.0,624.0
8476.0,593.0
8480.0,576.0
8484.0,547.0
8488.0,511.0
8492.0,499.0
8496.0,496.0
8500.0,471.0
8504.0,459.0
8508.0,449.0
8512.0,441.0
8516.0,437.0
8520.0,434.0
8524.0,432.0
8528.0,432.0
8532.0,433.0
8536.0,439.0
8540.0,441.0
8544.0,447.0
8548.0,450.0
8552.0,458.0
8556.0,464.0
8560.0,467.0
8564.0,476.0
8568.0,485.0
8572.0,495.0
8576.0,497.0
8580.0,506.0
8584.0,511.0
8588.0,528.0
8592.0,531.0
8596.0,539.0
8600.0,548.0
8604.0,553.0
8608.0,560.0
8612.0,564.0
8616.0,573.0
8620.0,582.0
8624.0,585.0
8628.0,592.0
8632.0,605.0
8636.0,613.0
8640.0,624.0
8644.0,634.0
8648.0,643.0
8652.0,656.0
8656.0,667.0
8660.0,688.0
8664.0,693.0
8668.0,709.0
8672.0,720.0
8676.0,737.0
8680.0,752.0
8684.0,770.0
8688.0,785.0
8692.0,806.0
8696.0,817.0
8700.0,840.0
8704.0,860.0
8708.0,874.0
8712.0,894.0
8716.0,915.0
8720.0,933.0
8724.0,950.0
8728.0,971.0
8732.0,993.0
8736.0,220.0
8740.0,223.0
8744.0,219.0
8748.0,197.0
8752.0,196.0
8756.0,228.0
8760.0,230.0
8764.0,219.0
8768.0,227.0
8772.0,228.0
8776.0,230.0
8780.0,223.0
8784.0,224.0
8788.0,225.0
8792.0,210.0
8796.0,207.0
8800.0,195.0
8804.0,197.0
8808.0,211.0
8812.0,212.0
8816.0,213.0
8820.0,222.0
8824.0,220.0
8828.0,944.0
8832.0,839.0
8836.0,748.0
8840.0,679.0
8844.0,624.0
8848.0,577.0
8852.0,535.0
8856.0,497.0
8860.0,480.0
8864.0,465.0
8868.0,464.0
8872.0,463.0
8876.0,624.0
8880.0,933.0
8884.0,946.0
8888.0,960.0
8892.0,973.0
8896.0,985.0
8900.0,999.0
8904.0,236.0
8908.0,194.0
8912.0,194.0
8916.0,192.0
8920.0,194.0
8924.0,184.0
8928.0,183.0
8932.0,182.0
8936.0,807.0
8940.0,178.0
8944.0,177.0
8948.0,179.0
8952.0,189.0
8956.0,183.0
8960.0,162.0
8964.0,144.0
8968.0,145.0
8972.0,151.0
8976.0,150.0
8980.0,999.0
8984.0,919.0
8988.0,869.0
8992.0,819.0
8996.0,754.0
9000.0,705.0
9004.0,656.0
9008.0,606.0
9012.0,566.0
9016.0,528.0
9020.0,498.0
9024.0,467.0
9028.0,445.0
9032.0,426.0
9036.0,403.0
9040.0,387.0
9044.0,377.0
9048.0,367.0
9052.0,363.0
9056.0,363.0
9060.0,366.0
9064.0,371.0
9068.0,362.0
9072.0,534.0
9076.0,234.0
9080.0,233.0
9084.0,981.0
9088.0,965.0
9092.0,946.0
9096.0,931.0
9100.0,923.0
9104.0,915.0
9108.0,912.0
9112.0,208.0
9116.0,211.0
9120.0,212.0
9124.0,182.0
9128.0,153.0
9132.0,168.0
9136.0,115.0
9140.0,111.0
9144.0,976.0
9148.0,975.0
9152.0,104.0
9156.0,102.0
9160.0,49.0
9164.0,134.0
9168.0,133.0
9172.0,903.0
9176.0,898.0
9180.0,910.0
9184.0,918.0
9188.0,935.0
9192.0,982.0
9196.0,997.0
9200.0,117.0
9204.0,116.0
9208.0,992.0
9212.0,976.0
9216.0,968.0
9220.0,959.0
9224.0,953.0
9228.0,944.0
9232.0,942.0
9236.0,938.0
9240.0,942.0
9244.0,943.0
9248.0,944.0
9252.0,948.0
9256.0,975.0
9260.0,982.0
9264.0,220.0
9268.0,219.0
9272.0,217.0
9276.0,187.0
9280.0,402.0
9284.0,402.0
9288.0,403.0
9292.0,101.0
9296.0,963.0
9300.0,922.0
9304.0,884.0
9308.0,845.0
9312.0,792.0
9316.0,749.0
9320.0,727.0
9324.0,720.0
9328.0,715.0
9332.0,695.0
9336.0,688.0
9340.0,689.0
9344.0,692.0
9348.0,693.0
9352.0,727.0
9356.0,708.0
9360.0,717.0
9364.0,720.0
9368.0,725.0
9372.0,738.0
9376.0,757.0
9380.0,761.0
9384.0,766.0
9388.0,767.0
9392.0,771.0
9396.0,775.0
9400.0,783.0
9404.0,785.0
9408.0,787.0
9412.0,790.0
9416.0,790.0
9420.0,795.0
9424.0,796.0
9428.0,798.0
9432.0,799.0
9436.0,798.0
9440.0,807.0
9444.0,816.0
9448.0,821.0
9452.0,181.0
9456.0,180.0
9460.0,225.0
9464.0,227.0
9468.0,228.0
9472.0,204.0
9476.0,206.0
9480.0,202.0
9484.0,202.0
9488.0,225.0
9492.0,226.0
9496.0,228.0
9500.0,230.0
9504.0,172.0
9508.0,193.0
9512.0,929.0
9516.0,885.0
9520.0,816.0
9524.0,763.0
9528.0,708.0
9532.0,651.0
9536.0,606.0
9540.0,560.0
9544.0,509.0
9548.0,469.0
9552.0,429.0
9556.0,400.0
9560.0,369.0
9564.0,343.0
9568.0,327.0
9572.0,311.0
9576.0,301.0
9580.0,290.0
9584.0,281.0
9588.0,275.0
9592.0,250.0
9596.0,285.0
9600.0,295.0
9604.0,307.0
9608.0,316.0
9612.0,335.0
9616.0,353.0
9620.0,374.0
9624.0,384.0
9628.0,417.0
9632.0,435.0
9636.0,462.0
9640.0,481.0
9644.0,529.0
9648.0,557.0
9652.0,566.0
9656.0,869.0
9660.0,129.0
9664.0,135.0
9668.0,197.0
9672.0,206.0
9676.0,214.0
9680.0,203.0
9684.0,203.0
9688.0,238.0
9692.0,236.0
9696.0,209.0
9700.0,232.0
9704.0,249.0
9708.0,250.0
9712.0,250.0
9716.0,211.0
9720.0,211.0
9724.0,222.0
9728.0,222.0
9732.0,255.0
9736.0,259.0
9740.0,642.0
9744.0,249.0
9748.0,225.0
9752.0,223.0
9756.0,223.0
9760.0,236.0
9764.0,216.0
9768.0,232.0
9772.0,209.0
9776.0,206.0
9780.0,209.0
9784.0,212.0
9788.0,210.0
9792.0,190.0
9796.0,191.0
9800.0,217.0
9804.0,218.0
9808.0,192.0
9812.0,237.0
9816.0,235.0
9820.0,232.0
9824.0,404.0
9828.0,404.0
9832.0,640.0
9836.0,640.0
9840.0,624.0
9844.0,620.0
9848.0,615.0
9852.0,615.0
9856.0,617.0
9860.0,624.0
9864.0,625.0
9868.0,640.0
9872.0,650.0
9876.0,656.0
9880.0,676.0
9884.0,698.0
9888.0,736.0
9892.0,754.0
9896.0,779.0
9900.0,799.0
9904.0,823.0
9908.0,848.0
9912.0,880.0
9916.0,896.0
9920.0,919.0
9924.0,937.0
9928.0,976.0
9932.0,150.0
9936.0,161.0
9940.0,218.0
9944.0,217.0
9948.0,237.0
9952.0,238.0
9956.0,412.0
9960.0,230.0
9964.0,229.0
9968.0,233.0
9972.0,232.0
9976.0,228.0
9980.0,186.0
9984.0,195.0
9988.0,197.0
9992.0,22.0
9996.0,198.0
10000.0,199.0
10004.0,218.0
10008.0,215.0
10012.0,214.0
10016.0,208.0
10020.0,191.0
10024.0,488.0
10028.0,137.0
10032.0,142.0
10036.0,981.0
10040.0,880.0
10044.0,789.0
10048.0,709.0
10052.0,610.0
10056.0,546.0
10060.0,478.0
10064.0,389.0
10068.0,336.0
10072.0,92.0
10076.0,381.0
10080.0,425.0
10084.0,449.0
10088.0,470.0
10092.0,503.0
10096.0,528.0
10100.0,552.0
10104.0,585.0
10108.0,593.0
10112.0,618.0
10116.0,627.0
10120.0,641.0
10124.0,656.0
10128.0,661.0
10132.0,666.0
10136.0,677.0
10140.0,686.0
10144.0,688.0
10148.0,693.0
10152.0,699.0
10156.0,705.0
10160.0,707.0
10164.0,711.0
10168.0,720.0
10172.0,720.0
10176.0,727.0
10180.0,735.0
10184.0,741.0
10188.0,752.0
10192.0,757.0
10196.0,768.0
10200.0,773.0
10204.0,786.0
10208.0,795.0
10212.0,806.0
10216.0,822.0
10220.0,835.0
10224.0,847.0
10228.0,859.0
10232.0,874.0
10236.0,893.0
10240.0,913.0
10244.0,935.0
10248.0,950.0
10252.0,967.0
10256.0,983.0
10260.0,997.0
10264.0,998.0
10268.0,994.0
10272.0,129.0
10276.0,128.0
10280.0,173.0
10284.0,152.0
10288.0,138.0
10292.0,935.0
10296.0,852.0
10300.0,807.0
10304.0,753.0
10308.0,717.0
10312.0,680.0
10316.0,649.0
10320.0,601.0
10324.0,569.0
10328.0,541.0
10332.0,509.0
10336.0,496.0
10340.0,474.0
10344.0,459.0
10348.0,439.0
10352.0,415.0
10356.0,400.0
10360.0,375.0
10364.0,363.0
10368.0,352.0
10372.0,346.0
10376.0,341.0
10380.0,467.0
10384.0,212.0
10388.0,216.0
10392.0,231.0
10396.0,241.0
10400.0,470.0
10404.0,469.0
10408.0,464.0
10412.0,455.0
10416.0,447.0
10420.0,435.0
10424.0,420.0
10428.0,414.0
10432.0,400.0
10436.0,389.0
10440.0,368.0
10444.0,355.0
10448.0,339.0
10452.0,326.0
10456.0,307.0
10460.0,279.0
10464.0,277.0
10468.0,262.0
10472.0,247.0
10476.0,238.0
10480.0,221.0
10484.0,211.0
10488.0,202.0
10492.0,192.0
10496.0,186.0
10500.0,178.0
10504.0,174.0
10508.0,170.0
10512.0,167.0
10516.0,167.0
10520.0,168.0
10524.0,166.0
10528.0,172.0
10532.0,176.0
10536.0,179.0
10540.0,185.0
10544.0,192.0
10548.0,203.0
10552.0,212.0
10556.0,223.0
10560.0,234.0
10564.0,242.0
10568.0,254.0
10572.0,263.0
10576.0,275.0
10580.0,287.0
10584.0,299.0
10588.0,304.0
10592.0,314.0
10596.0,322.0
10600.0,326.0
10604.0,333.0
10608.0,336.0
10612.0,336.0
10616.0,335.0
10620.0,326.0
10624.0,313.0
10628.0,294.0
10632.0,272.0
10636.0,249.0
10640.0,226.0
10644.0,206.0
10648.0,187.0
10652.0,160.0
10656.0,144.0
10660.0,124.0
10664.0,108.0
10668.0,96.0
10672.0,96.0
10676.0,95.0
10680.0,94.0
10684.0,95.0
10688.0,94.0
10692.0,95.0
10696.0,94.0
10700.0,94.0
10704.0,95.0
10708.0,95.0
10712.0,96.0
10716.0,96.0
10720.0,93.0
10724.0,95.0
10728.0,94.0
10732.0,93.0
10736.0,92.0
10740.0,94.0
10744.0,94.0
10748.0,95.0
10752.0,94.0
10756.0,95.0
10760.0,95.0
10764.0,93.0
10768.0,77.0
10772.0,95.0
10776.0,93.0
10780.0,94.0
10784.0,94.0
10788.0,95.0
10792.0,95.0
10796.0,95.0
10800.0,92.0
10804.0,94.0
10808.0,94.0
10812.0,95.0
10816.0,95.0
10820.0,93.0
10824.0,94.0
10828.0,93.0
10832.0,94.0
10836.0,95.0
10840.0,94.0
10844.0,95.0
10848.0,94.0
10852.0,93.0
10856.0,95.0
10860.0,94.0
10864.0,93.0
10868.0,95.0
10872.0,95.0
10876.0,93.0
10880.0,94.0
10884.0,94.0
10888.0,94.0
10892.0,95.0
10896.0,95.0
10900.0,94.0
10904.0,94.0
10908.0,112.0
10912.0,94.0
10916.0,95.0
10920.0,92.0
10924.0,95.0
10928.0,93.0
10932.0,91.0
10936.0,93.0
10940.0,95.0
10944.0,95.0
10948.0,95.0
10952.0,93.0
10956.0,93.0
10960.0,95.0
10964.0,95.0
10968.0,93.0
10972.0,95.0
10976.0,95.0
10980.0,94.0
10984.0,93.0
10988.0,94.0
10992.0,178.0
10996.0,176.0
11000.0,173.0
11004.0,165.0
11008.0,159.0
11012.0,151.0
11016.0,145.0
11020.0,143.0
11024.0,133.0
11028.0,125.0
11032.0,123.0
11036.0,118.0
11040.0,112.0
11044.0,109.0
11048.0,106.0
11052.0,101.0
11056.0,96.0
11060.0,97.0
11064.0,96.0
11068.0,96.0
11072.0,96.0
11076.0,95.0
11080.0,95.0
11084.0,99.0
11088.0,108.0
11092.0,133.0
11096.0,141.0
11100.0,148.0
11104.0,160.0
11108.0,171.0
11112.0,189.0
11116.0,208.0
11120.0,233.0
11124.0,257.0
11128.0,277.0
11132.0,301.0
11136.0,317.0
11140.0,327.0
11144.0,337.0
11148.0,343.0
11152.0,347.0
11156.0,346.0
11160.0,340.0
11164.0,336.0
11168.0,326.0
11172.0,320.0
11176.0,308.0
11180.0,298.0
11184.0,279.0
11188.0,270.0
11192.0,257.0
11196.0,246.0
11200.0,237.0
11204.0,224.0
11208.0,212.0
11212.0,207.0
11216.0,198.0
11220.0,193.0
11224.0,190.0
11228.0,187.0
11232.0,187.0
11236.0,188.0
11240.0,192.0
11244.0,201.0
11248.0,209.0
11252.0,225.0
11256.0,240.0
11260.0,256.0
11264.0,277.0
11268.0,298.0
11272.0,315.0
11276.0,335.0
11280.0,361.0
11284.0,382.0
11288.0,400.0
11292.0,410.0
11296.0,458.0
11300.0,320.0
11304.0,330.0
11308.0,333.0
11312.0,338.0
11316.0,349.0
11320.0,357.0
11324.0,368.0
11328.0,379.0
11332.0,390.0
11336.0,401.0
11340.0,413.0
11344.0,428.0
11348.0,445.0
11352.0,464.0
11356.0,473.0
11360.0,487.0
11364.0,504.0
11368.0,519.0
11372.0,535.0
11376.0,555.0
11380.0,562.0
11384.0,571.0
11388.0,582.0
11392.0,592.0
11396.0,603.0
11400.0,610.0
11404.0,615.0
11408.0,620.0
11412.0,623.0
11416.0,623.0
11420.0,624.0
11424.0,623.0
11428.0,617.0
11432.0,613.0
11436.0,605.0
11440.0,595.0
11444.0,593.0
11448.0,585.0
11452.0,575.0
11456.0,566.0
11460.0,559.0
11464.0,545.0
11468.0,539.0
11472.0,528.0
11476.0,508.0
11480.0,497.0
11484.0,491.0
11488.0,473.0
11492.0,473.0
11496.0,464.0
11500.0,461.0
11504.0,459.0
11508.0,450.0
11512.0,448.0
11516.0,449.0
11520.0,448.0
11524.0,445.0
11528.0,446.0
11532.0,443.0
11536.0,443.0
11540.0,447.0
11544.0,448.0
11548.0,449.0
11552.0,450.0
11556.0,459.0
11560.0,464.0
11564.0,465.0
11568.0,478.0
11572.0,482.0
11576.0,492.0
11580.0,498.0
11584.0,507.0
11588.0,524.0
11592.0,528.0
11596.0,540.0
11600.0,547.0
11604.0,558.0
11608.0,562.0
11612.0,571.0
11616.0,577.0
11620.0,583.0
11624.0,590.0
11628.0,592.0
11632.0,597.0
11636.0,601.0
11640.0,606.0
11644.0,605.0
11648.0,609.0
11652.0,610.0
11656.0,613.0
11660.0,615.0
11664.0,614.0
11668.0,621.0
11672.0,622.0
11676.0,624.0
11680.0,625.0
11684.0,633.0
11688.0,641.0
11692.0,643.0
11696.0,659.0
11700.0,674.0
11704.0,685.0
11708.0,699.0
11712.0,724.0
11716.0,739.0
11720.0,764.0
11724.0,788.0
11728.0,848.0
11732.0,882.0
11736.0,966.0
11740.0,997.0
11744.0,911.0
11748.0,728.0
11752.0,539.0
11756.0,384.0
11760.0,273.0
11764.0,167.0
11768.0,94.0
11772.0,284.0
11776.0,625.0
11780.0,859.0
11784.0,670.0
11788.0,848.0
11792.0,717.0
11796.0,831.0
11800.0,753.0
11804.0,875.0
11808.0,784.0
11812.0,795.0
11816.0,804.0
11820.0,811.0
11824.0,814.0
11828.0,813.0
11832.0,823.0
11836.0,803.0
11840.0,980.0
11844.0,795.0
11848.0,784.0
11852.0,782.0
11856.0,763.0
11860.0,928.0
11864.0,735.0
11868.0,791.0
11872.0,707.0
11876.0,833.0
11880.0,686.0
11884.0,704.0
11888.0,663.0
11892.0,655.0
11896.0,651.0
11900.0,639.0
11904.0,682.0
11908.0,630.0
11912.0,705.0
11916.0,630.0
11920.0,635.0
11924.0,641.0
11928.0,641.0
11932.0,850.0
11936.0,657.0
11940.0,665.0
11944.0,688.0
11948.0,695.0
11952.0,846.0
11956.0,721.0
11960.0,733.0
11964.0,939.0
11968.0,765.0
11972.0,783.0
11976.0,815.0
11980.0,820.0
11984.0,841.0
11988.0,848.0
11992.0,859.0
11996.0,878.0
12000.0,880.0
12004.0,983.0
12008.0,897.0
12012.0,901.0
12016.0,912.0
12020.0,911.0
12024.0,912.0
12028.0,912.0
12032.0,907.0
12036.0,903.0
12040.0,891.0
12044.0,886.0
12048.0,915.0
12052.0,778.0
12056.0,803.0
12060.0,816.0
12064.0,830.0
12068.0,846.0
12072.0,864.0
12076.0,874.0
12080.0,886.0
12084.0,896.0
12088.0,910.0
12092.0,923.0
12096.0,938.0
12100.0,944.0
12104.0,955.0
12108.0,962.0
12112.0,975.0
12116.0,978.0
12120.0,981.0
12124.0,989.0
12128.0,991.0
12132.0,993.0
12136.0,991.0
12140.0,990.0
12144.0,987.0
12148.0,985.0
12152.0,978.0
12156.0,977.0
12160.0,973.0
12164.0,995.0
12168.0,959.0
12172.0,955.0
12176.0,945.0
12180.0,941.0
12184.0,933.0
12188.0,925.0
12192.0,919.0
12196.0,912.0
12200.0,910.0
12204.0,901.0
12208.0,893.0
12212.0,886.0
12216.0,883.0
12220.0,880.0
12224.0,880.0
12228.0,879.0
12232.0,879.0
12236.0,877.0
12240.0,879.0
12244.0,880.0
12248.0,879.0
12252.0,879.0
12256.0,880.0
12260.0,883.0
12264.0,887.0
12268.0,893.0
12272.0,896.0
12276.0,899.0
12280.0,907.0
12284.0,918.0
12288.0,927.0
12292.0,940.0
12296.0,970.0
12300.0,106.0
12304.0,135.0
12308.0,140.0
12312.0,534.0
12316.0,204.0
12320.0,205.0
12324.0,194.0
12328.0,194.0
12332.0,236.0
12336.0,237.0
12340.0,237.0
12344.0,232.0
12348.0,219.0
12352.0,219.0
12356.0,217.0
12360.0,211.0
12364.0,211.0
12368.0,89.0
12372.0,188.0
12376.0,185.0
12380.0,839.0
12384.0,183.0
12388.0,172.0
12392.0,176.0
12396.0,194.0
12400.0,192.0
12404.0,190.0
12408.0,188.0
12412.0,170.0
12416.0,172.0
12420.0,200.0
12424.0,197.0
12428.0,907.0
12432.0,222.0
12436.0,239.0
12440.0,216.0
12444.0,209.0
12448.0,209.0
12452.0,258.0
12456.0,257.0
12460.0,227.0
12464.0,225.0
12468.0,228.0
12472.0,246.0
12476.0,221.0
12480.0,395.0
12484.0,403.0
12488.0,395.0
12492.0,409.0
12496.0,379.0
12500.0,639.0
12504.0,831.0
12508.0,148.0
12512.0,139.0
12516.0,139.0
12520.0,202.0
12524.0,206.0
12528.0,211.0
12532.0,219.0
12536.0,218.0
12540.0,271.0
12544.0,273.0
12548.0,313.0
12552.0,365.0
12556.0,328.0
12560.0,324.0
12564.0,292.0
12568.0,265.0
12572.0,264.0
12576.0,258.0
12580.0,259.0
12584.0,224.0
12588.0,222.0
12592.0,220.0
12596.0,225.0
12600.0,222.0
12604.0,220.0
12608.0,217.0
12612.0,214.0
12616.0,250.0
12620.0,230.0
12624.0,965.0
12628.0,838.0
12632.0,955.0
12636.0,718.0
12640.0,656.0
12644.0,779.0
12648.0,597.0
12652.0,619.0
12656.0,627.0
12660.0,643.0
12664.0,653.0
12668.0,671.0
12672.0,688.0
12676.0,701.0
12680.0,708.0
12684.0,717.0
12688.0,741.0
12692.0,756.0
12696.0,783.0
12700.0,800.0
12704.0,812.0
12708.0,818.0
12712.0,827.0
12716.0,834.0
12720.0,850.0
12724.0,859.0
12728.0,869.0
12732.0,885.0
12736.0,902.0
12740.0,914.0
12744.0,922.0
12748.0,944.0
12752.0,136.0
12756.0,135.0
12760.0,153.0
12764.0,157.0
12768.0,164.0
12772.0,169.0
12776.0,212.0
12780.0,209.0
12784.0,225.0
12788.0,228.0
12792.0,231.0
12796.0,329.0
12800.0,217.0
12804.0,215.0
12808.0,214.0
12812.0,191.0
12816.0,192.0
12820.0,179.0
12824.0,179.0
12828.0,178.0
12832.0,162.0
12836.0,163.0
12840.0,163.0
12844.0,180.0
12848.0,186.0
12852.0,188.0
12856.0,190.0
12860.0,196.0
12864.0,212.0
12868.0,213.0
12872.0,211.0
12876.0,207.0
12880.0,230.0
12884.0,231.0
12888.0,232.0
12892.0,216.0
12896.0,216.0
12900.0,215.0
12904.0,227.0
12908.0,238.0
12912.0,473.0
12916.0,222.0
12920.0,237.0
12924.0,230.0
12928.0,881.0
12932.0,859.0
12936.0,848.0
12940.0,844.0
12944.0,841.0
12948.0,842.0
12952.0,841.0
12956.0,858.0
12960.0,868.0
12964.0,883.0
12968.0,906.0
12972.0,922.0
12976.0,939.0
12980.0,958.0
12984.0,980.0
12988.0,997.0
12992.0,228.0
12996.0,226.0
13000.0,223.0
13004.0,976.0
13008.0,939.0
13012.0,910.0
13016.0,878.0
13020.0,816.0
13024.0,992.0
13028.0,779.0
13032.0,752.0
13036.0,747.0
13040.0,720.0
13044.0,912.0
13048.0,688.0
13052.0,682.0
13056.0,673.0
13060.0,657.0
13064.0,849.0
13068.0,647.0
13072.0,649.0
13076.0,645.0
13080.0,662.0
13084.0,656.0
13088.0,847.0
13092.0,667.0
13096.0,673.0
13100.0,685.0
13104.0,681.0
13108.0,707.0
13112.0,685.0
13116.0,811.0
13120.0,688.0
13124.0,679.0
13128.0,880.0
13132.0,673.0
13136.0,665.0
13140.0,827.0
13144.0,653.0
13148.0,642.0
13152.0,799.0
13156.0,625.0
13160.0,607.0
13164.0,794.0
13168.0,564.0
13172.0,557.0
13176.0,560.0
13180.0,525.0
13184.0,362.0
13188.0,290.0
13192.0,314.0
13196.0,304.0
13200.0,313.0
13204.0,323.0
13208.0,325.0
13212.0,405.0
13216.0,336.0
13220.0,336.0
13224.0,547.0
13228.0,337.0
13232.0,497.0
13236.0,336.0
13240.0,333.0
13244.0,333.0
13248.0,318.0
13252.0,310.0
13256.0,305.0
13260.0,304.0
13264.0,275.0
13268.0,266.0
13272.0,253.0
13276.0,236.0
13280.0,220.0
13284.0,207.0
13288.0,192.0
13292.0,176.0
13296.0,167.0
13300.0,151.0
13304.0,135.0
13308.0,126.0
13312.0,113.0
13316.0,109.0
13320.0,97.0
13324.0,95.0
13328.0,95.0
13332.0,94.0
13336.0,94.0
13340.0,94.0
13344.0,93.0
13348.0,93.0
13352.0,93.0
13356.0,94.0
13360.0,96.0
13364.0,96.0
13368.0,99.0
13372.0,109.0
13376.0,116.0
13380.0,128.0
13384.0,141.0
13388.0,151.0
13392.0,169.0
13396.0,183.0
13400.0,197.0
13404.0,210.0
13408.0,227.0
13412.0,240.0
13416.0,262.0
13420.0,273.0
13424.0,283.0
13428.0,300.0
13432.0,306.0
13436.0,314.0
13440.0,320.0
13444.0,326.0
13448.0,329.0
13452.0,331.0
13456.0,330.0
13460.0,325.0
13464.0,322.0
13468.0,320.0
13472.0,310.0
13476.0,303.0
13480.0,292.0
13484.0,283.0
13488.0,272.0
13492.0,259.0
13496.0,160.0
13500.0,260.0
13504.0,279.0
13508.0,295.0
13512.0,304.0
13516.0,320.0
13520.0,333.0
13524.0,345.0
13528.0,353.0
13532.0,363.0
13536.0,371.0
13540.0,381.0
13544.0,385.0
13548.0,382.0
13552.0,376.0
13556.0,368.0
13560.0,357.0
13564.0,339.0
13568.0,325.0
13572.0,304.0
13576.0,292.0
13580.0,277.0
13584.0,271.0
13588.0,247.0
13592.0,237.0
13596.0,227.0
13600.0,217.0
13604.0,212.0
13608.0,208.0
13612.0,208.0
13616.0,208.0
13620.0,208.0
13624.0,214.0
13628.0,215.0
13632.0,227.0
13636.0,239.0
13640.0,247.0
13644.0,262.0
13648.0,274.0
13652.0,293.0
13656.0,304.0
13660.0,322.0
13664.0,337.0
13668.0,352.0
13672.0,368.0
13676.0,384.0
13680.0,399.0
13684.0,413.0
13688.0,431.0
13692.0,435.0
13696.0,448.0
13700.0,450.0
13704.0,459.0
13708.0,463.0
13712.0,464.0
13716.0,464.0
13720.0,458.0
13724.0,449.0
13728.0,441.0
13732.0,432.0
13736.0,419.0
13740.0,402.0
13744.0,399.0
13748.0,385.0
13752.0,372.0
13756.0,364.0
13760.0,348.0
13764.0,333.0
13768.0,324.0
13772.0,315.0
13776.0,304.0
13780.0,295.0
13784.0,281.0
13788.0,277.0
13792.0,275.0
13796.0,272.0
13800.0,285.0
13804.0,289.0
13808.0,302.0
13812.0,320.0
13816.0,330.0
13820.0,459.0
13824.0,401.0
13828.0,374.0
13832.0,351.0
13836.0,352.0
13840.0,325.0
13844.0,321.0
13848.0,315.0
13852.0,317.0
13856.0,320.0
13860.0,323.0
13864.0,331.0
13868.0,337.0
13872.0,346.0
13876.0,355.0
13880.0,366.0
13884.0,374.0
13888.0,393.0
13892.0,402.0
13896.0,414.0
13900.0,432.0
13904.0,443.0
13908.0,461.0
13912.0,476.0
13916.0,491.0
13920.0,509.0
13924.0,525.0
13928.0,534.0
13932.0,547.0
13936.0,560.0
13940.0,565.0
13944.0,578.0
13948.0,581.0
13952.0,585.0
13956.0,585.0
13960.0,583.0
13964.0,580.0
13968.0,576.0
13972.0,571.0
13976.0,561.0
13980.0,553.0
13984.0,545.0
13988.0,534.0
13992.0,525.0
13996.0,506.0
14000.0,496.0
14004.0,485.0
14008.0,471.0
14012.0,460.0
14016.0,451.0
14020.0,441.0
14024.0,432.0
14028.0,421.0
14032.0,414.0
14036.0,409.0
14040.0,405.0
14044.0,399.0
14048.0,398.0
14052.0,399.0
14056.0,397.0
14060.0,398.0
14064.0,400.0
14068.0,403.0
14072.0,413.0
14076.0,421.0
14080.0,429.0
14084.0,436.0
14088.0,448.0
14092.0,461.0
14096.0,474.0
14100.0,487.0
14104.0,497.0
14108.0,511.0
14112.0,533.0
14116.0,547.0
14120.0,562.0
14124.0,592.0
14128.0,604.0
14132.0,614.0
14136.0,670.0
14140.0,551.0
14144.0,553.0
14148.0,559.0
14152.0,574.0
14156.0,595.0
14160.0,624.0
14164.0,653.0
14168.0,693.0
14172.0,727.0
14176.0,765.0
14180.0,782.0
14184.0,794.0
14188.0,810.0
14192.0,822.0
14196.0,837.0
14200.0,848.0
14204.0,854.0
14208.0,866.0
14212.0,871.0
14216.0,879.0
14220.0,880.0
14224.0,880.0
14228.0,880.0
14232.0,877.0
14236.0,875.0
14240.0,865.0
14244.0,859.0
14248.0,848.0
14252.0,847.0
14256.0,834.0
14260.0,819.0
14264.0,813.0
14268.0,800.0
14272.0,789.0
14276.0,781.0
14280.0,771.0
14284.0,763.0
14288.0,754.0
14292.0,752.0
14296.0,727.0
14300.0,741.0
14304.0,738.0
14308.0,735.0
14312.0,737.0
14316.0,738.0
14320.0,738.0
14324.0,745.0
14328.0,750.0
14332.0,755.0
14336.0,762.0
14340.0,778.0
14344.0,783.0
14348.0,795.0
14352.0,815.0
14356.0,828.0
14360.0,835.0
14364.0,847.0
14368.0,866.0
14372.0,880.0
14376.0,897.0
14380.0,912.0
14384.0,936.0
14388.0,945.0
14392.0,970.0
14396.0,981.0
14400.0,999.0
14404.0,611.0
14408.0,589.0
14412.0,573.0
14416.0,759.0
14420.0,559.0
14424.0,591.0
14428.0,560.0
14432.0,634.0
14436.0,563.0
14440.0,576.0
14444.0,597.0
14448.0,597.0
14452.0,611.0
14456.0,625.0
14460.0,640.0
14464.0,859.0
14468.0,670.0
14472.0,718.0
14476.0,690.0
14480.0,779.0
14484.0,706.0
14488.0,713.0
14492.0,720.0
14496.0,720.0
14500.0,928.0
14504.0,720.0
14508.0,933.0
14512.0,720.0
14516.0,729.0
14520.0,716.0
14524.0,711.0
14528.0,925.0
14532.0,718.0
14536.0,722.0
14540.0,913.0
14544.0,743.0
14548.0,765.0
14552.0,780.0
14556.0,811.0
14560.0,821.0
14564.0,847.0
14568.0,873.0
14572.0,901.0
14576.0,972.0
14580.0,231.0
14584.0,208.0
14588.0,205.0
14592.0,210.0
14596.0,211.0
14600.0,196.0
14604.0,195.0
14608.0,193.0
14612.0,215.0
14616.0,214.0
14620.0,195.0
14624.0,196.0
14628.0,201.0
14632.0,201.0
14636.0,203.0
14640.0,152.0
14644.0,122.0
14648.0,979.0
14652.0,944.0
14656.0,925.0
14660.0,890.0
14664.0,823.0
14668.0,784.0
14672.0,717.0
14676.0,673.0
14680.0,643.0
14684.0,614.0
14688.0,607.0
14692.0,927.0
14696.0,943.0
14700.0,944.0
14704.0,949.0
14708.0,953.0
14712.0,960.0
14716.0,966.0
14720.0,969.0
14724.0,969.0
14728.0,976.0
14732.0,976.0
14736.0,977.0
14740.0,982.0
14744.0,989.0
14748.0,992.0
14752.0,994.0
14756.0,989.0
14760.0,166.0
14764.0,180.0
14768.0,521.0
14772.0,107.0
14776.0,232.0
14780.0,233.0
14784.0,215.0
14788.0,214.0
14792.0,213.0
14796.0,226.0
14800.0,228.0
14804.0,212.0
14808.0,210.0
14812.0,222.0
14816.0,224.0
14820.0,226.0
14824.0,227.0
14828.0,231.0
14832.0,217.0
14836.0,189.0
14840.0,185.0
14844.0,186.0
14848.0,188.0
14852.0,744.0
14856.0,182.0
14860.0,185.0
14864.0,197.0
14868.0,197.0
14872.0,198.0
14876.0,226.0
14880.0,227.0
14884.0,227.0
14888.0,207.0
14892.0,208.0
14896.0,959.0
14900.0,890.0
14904.0,817.0
14908.0,766.0
14912.0,720.0
14916.0,690.0
14920.0,671.0
14924.0,757.0
14928.0,215.0
14932.0,212.0
14936.0,210.0
14940.0,248.0
14944.0,250.0
14948.0,994.0
14952.0,952.0
14956.0,925.0
14960.0,901.0
14964.0,877.0
14968.0,875.0
14972.0,851.0
14976.0,845.0
14980.0,841.0
14984.0,843.0
14988.0,848.0
14992.0,851.0
14996.0,865.0
15000.0,878.0
15004.0,899.0
15008.0,912.0
15012.0,928.0
15016.0,953.0
15020.0,206.0
15024.0,206.0
15028.0,213.0
15032.0,215.0
15036.0,74.0
15040.0,197.0
15044.0,198.0
15048.0,199.0
15052.0,201.0
15056.0,201.0
15060.0,216.0
15064.0,215.0
15068.0,214.0
15072.0,210.0
15076.0,212.0
15080.0,194.0
15084.0,192.0
15088.0,789.0
15092.0,185.0
15096.0,187.0
15100.0,190.0
15104.0,172.0
15108.0,171.0
15112.0,138.0
15116.0,998.0
15120.0,939.0
15124.0,880.0
15128.0,827.0
15132.0,784.0
15136.0,754.0
15140.0,707.0
15144.0,686.0
15148.0,666.0
15152.0,649.0
15156.0,636.0
15160.0,624.0
15164.0,624.0
15168.0,615.0
15172.0,615.0
15176.0,612.0
15180.0,611.0
15184.0,610.0
15188.0,610.0
15192.0,611.0
15196.0,611.0
15200.0,611.0
15204.0,616.0
15208.0,618.0
15212.0,617.0
15216.0,622.0
15220.0,624.0
15224.0,626.0
15228.0,640.0
15232.0,645.0
15236.0,656.0
15240.0,673.0
15244.0,695.0
15248.0,721.0
15252.0,752.0
15256.0,794.0
15260.0,825.0
15264.0,870.0
15268.0,912.0
15272.0,960.0
15276.0,176.0
15280.0,177.0
15284.0,179.0
15288.0,887.0
15292.0,196.0
15296.0,195.0
15300.0,207.0
15304.0,204.0
15308.0,202.0
15312.0,200.0
15316.0,199.0
15320.0,207.0
15324.0,205.0
15328.0,14.0
15332.0,116.0
15336.0,219.0
15340.0,220.0
15344.0,987.0
15348.0,188.0
15352.0,189.0
15356.0,191.0
15360.0,200.0
15364.0,166.0
15368.0,169.0
15372.0,976.0
15376.0,944.0
15380.0,915.0
15384.0,895.0
15388.0,877.0
15392.0,851.0
15396.0,845.0
15400.0,886.0
15404.0,193.0
15408.0,195.0
15412.0,198.0
15416.0,976.0
15420.0,170.0
15424.0,187.0
15428.0,206.0
15432.0,224.0
15436.0,238.0
15440.0,256.0
15444.0,272.0
15448.0,326.0
15452.0,377.0
15456.0,430.0
15460.0,482.0
15464.0,549.0
15468.0,599.0
15472.0,666.0
15476.0,719.0
15480.0,784.0
15484.0,830.0
15488.0,898.0
15492.0,937.0
15496.0,973.0
15500.0,999.0
15504.0,229.0
15508.0,202.0
15512.0,200.0
15516.0,198.0
15520.0,219.0
15524.0,217.0
15528.0,221.0
15532.0,224.0
15536.0,236.0
15540.0,229.0
15544.0,228.0
15548.0,295.0
15552.0,249.0
15556.0,250.0
15560.0,251.0
15564.0,250.0
15568.0,237.0
15572.0,237.0
15576.0,210.0
15580.0,289.0
15584.0,266.0
15588.0,705.0
15592.0,989.0
15596.0,855.0
15600.0,794.0
15604.0,733.0
15608.0,700.0
15612.0,650.0
15616.0,605.0
15620.0,581.0
15624.0,545.0
15628.0,528.0
15632.0,511.0
15636.0,497.0
15640.0,489.0
15644.0,487.0
15648.0,491.0
15652.0,491.0
15656.0,496.0
15660.0,498.0
15664.0,511.0
15668.0,528.0
15672.0,548.0
15676.0,576.0
15680.0,602.0
15684.0,627.0
15688.0,643.0
15692.0,671.0
15696.0,110.0
15700.0,137.0
15704.0,182.0
15708.0,177.0
15712.0,181.0
15716.0,184.0
15720.0,908.0
15724.0,187.0
15728.0,185.0
15732.0,202.0
15736.0,194.0
15740.0,191.0
15744.0,193.0
15748.0,181.0
15752.0,194.0
15756.0,201.0
15760.0,917.0
15764.0,904.0
15768.0,202.0
15772.0,204.0
15776.0,13.0
15780.0,222.0
15784.0,221.0
15788.0,188.0
15792.0,189.0
15796.0,190.0
15800.0,733.0
15804.0,739.0
15808.0,748.0
15812.0,758.0
15816.0,769.0
15820.0,787.0
15824.0,817.0
15828.0,851.0
15832.0,887.0
15836.0,943.0
15840.0,981.0
15844.0,272.0
15848.0,273.0
15852.0,227.0
15856.0,231.0
15860.0,235.0
15864.0,233.0
15868.0,219.0
15872.0,201.0
15876.0,971.0
15880.0,855.0
15884.0,972.0
15888.0,720.0
15892.0,661.0
15896.0,593.0
15900.0,549.0
15904.0,544.0
15908.0,423.0
15912.0,451.0
15916.0,365.0
15920.0,330.0
15924.0,310.0
15928.0,272.0
15932.0,458.0
15936.0,231.0
15940.0,219.0
15944.0,225.0
15948.0,200.0
15952.0,194.0
15956.0,192.0
15960.0,195.0
15964.0,272.0
15968.0,205.0
15972.0,210.0
15976.0,298.0
15980.0,249.0
15984.0,281.0
15988.0,522.0
15992.0,336.0
15996.0,352.0
16000.0,586.0
16004.0,400.0
16008.0,434.0
16012.0,489.0
16016.0,720.0
16020.0,539.0
16024.0,557.0
16028.0,785.0
16032.0,605.0
16036.0,629.0
16040.0,845.0
16044.0,667.0
16048.0,747.0
16052.0,796.0
16056.0,816.0
16060.0,818.0
16064.0,835.0
16068.0,889.0
16072.0,865.0
16076.0,880.0
16080.0,907.0
16084.0,912.0
16088.0,933.0
16092.0,960.0
16096.0,966.0
16100.0,978.0
16104.0,108.0
16108.0,106.0
16112.0,100.0
16116.0,997.0
16120.0,989.0
16124.0,982.0
16128.0,976.0
16132.0,974.0
16136.0,970.0
16140.0,967.0
16144.0,968.0
16148.0,971.0
16152.0,973.0
16156.0,975.0
16160.0,976.0
16164.0,988.0
16168.0,989.0
16172.0,997.0
16176.0,141.0
16180.0,141.0
16184.0,172.0
16188.0,175.0
16192.0,188.0
16196.0,193.0
16200.0,195.0
16204.0,199.0
16208.0,214.0
16212.0,211.0
16216.0,237.0
16220.0,240.0
16224.0,241.0
16228.0,221.0
16232.0,218.0
16236.0,159.0
16240.0,166.0
16244.0,253.0
16248.0,253.0
16252.0,448.0
16256.0,913.0
16260.0,658.0
16264.0,707.0
16268.0,752.0
16272.0,790.0
16276.0,839.0
16280.0,882.0
16284.0,926.0
16288.0,970.0
16292.0,275.0
16296.0,138.0
16300.0,134.0
16304.0,641.0
16308.0,108.0
16312.0,108.0
16316.0,168.0
16320.0,131.0
16324.0,132.0
16328.0,149.0
16332.0,119.0
16336.0,122.0
16340.0,138.0
16344.0,285.0
16348.0,181.0
16352.0,179.0
16356.0,404.0
16360.0,404.0
16364.0,403.0
16368.0,848.0
16372.0,761.0
16376.0,798.0
16380.0,816.0
16384.0,835.0
16388.0,857.0
16392.0,907.0
16396.0,922.0
16400.0,936.0
16404.0,961.0
16408.0,984.0
16412.0,122.0
16416.0,126.0
16420.0,131.0
16424.0,208.0
16428.0,210.0
16432.0,212.0
16436.0,226.0
16440.0,225.0
16444.0,224.0
16448.0,193.0
16452.0,193.0
16456.0,201.0
16460.0,203.0
16464.0,897.0
16468.0,854.0
16472.0,176.0
16476.0,178.0
16480.0,195.0
16484.0,170.0
16488.0,179.0
16492.0,181.0
16496.0,850.0
16500.0,164.0
16504.0,160.0
16508.0,158.0
16512.0,176.0
16516.0,164.0
16520.0,974.0
16524.0,936.0
16528.0,912.0
16532.0,875.0
16536.0,843.0
16540.0,826.0
16544.0,794.0
16548.0,777.0
16552.0,762.0
16556.0,743.0
16560.0,730.0
16564.0,720.0
16568.0,717.0
16572.0,710.0
16576.0,708.0
16580.0,706.0
16584.0,709.0
16588.0,717.0
16592.0,720.0
16596.0,734.0
16600.0,927.0
16604.0,245.0
16608.0,247.0
16612.0,265.0
16616.0,265.0
16620.0,237.0
16624.0,236.0
16628.0,234.0
16632.0,238.0
16636.0,294.0
16640.0,153.0
16644.0,155.0
16648.0,176.0
16652.0,174.0
16656.0,149.0
16660.0,148.0
16664.0,148.0
16668.0,977.0
16672.0,957.0
16676.0,929.0
16680.0,917.0
16684.0,901.0
16688.0,882.0
16692.0,864.0
16696.0,848.0
16700.0,846.0
16704.0,817.0
16708.0,806.0
16712.0,803.0
16716.0,782.0
16720.0,770.0
16724.0,772.0
16728.0,753.0
16732.0,751.0
16736.0,750.0
16740.0,735.0
16744.0,734.0
16748.0,741.0
16752.0,722.0
16756.0,721.0
16760.0,721.0
16764.0,720.0
16768.0,882.0
16772.0,727.0
16776.0,723.0
16780.0,730.0
16784.0,751.0
16788.0,788.0
16792.0,752.0
16796.0,749.0
16800.0,752.0
16804.0,778.0
16808.0,759.0
16812.0,964.0
16816.0,768.0
16820.0,967.0
16824.0,770.0
16828.0,769.0
16832.0,789.0
16836.0,762.0
16840.0,758.0
16844.0,749.0
16848.0,829.0
16852.0,718.0
16856.0,699.0
16860.0,679.0
16864.0,670.0
16868.0,672.0
16872.0,626.0
16876.0,616.0
16880.0,590.0
16884.0,768.0
16888.0,533.0
16892.0,496.0
16896.0,475.0
16900.0,618.0
16904.0,449.0
16908.0,429.0
16912.0,411.0
16916.0,397.0
16920.0,549.0
16924.0,403.0
16928.0,375.0
16932.0,371.0
16936.0,368.0
16940.0,579.0
16944.0,369.0
16948.0,373.0
16952.0,384.0
16956.0,381.0
16960.0,385.0
16964.0,607.0
16968.0,400.0
16972.0,406.0
16976.0,528.0
16980.0,431.0
16984.0,432.0
16988.0,448.0
16992.0,462.0
16996.0,465.0
17000.0,476.0
17004.0,656.0
17008.0,362.0
17012.0,295.0
17016.0,296.0
17020.0,493.0
17024.0,304.0
17028.0,305.0
17032.0,506.0
17036.0,321.0
17040.0,329.0
17044.0,453.0
17048.0,347.0
17052.0,355.0
17056.0,368.0
17060.0,384.0
17064.0,391.0
17068.0,401.0
17072.0,425.0
17076.0,428.0
17080.0,438.0
17084.0,477.0
17088.0,461.0
17092.0,471.0
17096.0,496.0
17100.0,494.0
17104.0,502.0
17108.0,709.0
17112.0,526.0
17116.0,528.0
17120.0,718.0
17124.0,542.0
17128.0,543.0
17132.0,681.0
17136.0,548.0
17140.0,543.0
17144.0,569.0
17148.0,538.0
17152.0,529.0
17156.0,701.0
17160.0,511.0
17164.0,501.0
17168.0,503.0
17172.0,483.0
17176.0,469.0
17180.0,461.0
17184.0,450.0
17188.0,432.0
17192.0,424.0
17196.0,411.0
17200.0,400.0
17204.0,393.0
17208.0,390.0
17212.0,371.0
17216.0,363.0
17220.0,362.0
17224.0,347.0
17228.0,341.0
17232.0,327.0
17236.0,336.0
17240.0,323.0
17244.0,326.0
17248.0,330.0
17252.0,349.0
17256.0,349.0
17260.0,360.0
17264.0,379.0
17268.0,390.0
17272.0,419.0
17276.0,426.0
17280.0,461.0
17284.0,464.0
17288.0,478.0
17292.0,690.0
17296.0,525.0
17300.0,672.0
17304.0,558.0
17308.0,567.0
17312.0,582.0
17316.0,599.0
17320.0,607.0
17324.0,621.0
17328.0,640.0
17332.0,640.0
17336.0,651.0
17340.0,848.0
17344.0,657.0
17348.0,663.0
17352.0,697.0
17356.0,672.0
17360.0,672.0
17364.0,791.0
17368.0,668.0
17372.0,663.0
17376.0,659.0
17380.0,657.0
17384.0,646.0
17388.0,605.0
17392.0,702.0
17396.0,496.0
17400.0,507.0
17404.0,531.0
17408.0,530.0
17412.0,538.0
17416.0,561.0
17420.0,558.0
17424.0,562.0
17428.0,585.0
17432.0,576.0
17436.0,577.0
17440.0,760.0
17444.0,589.0
17448.0,588.0
17452.0,771.0
17456.0,605.0
17460.0,598.0
17464.0,605.0
17468.0,608.0
17472.0,607.0
17476.0,611.0
17480.0,617.0
17484.0,623.0
17488.0,627.0
17492.0,638.0
17496.0,641.0
17500.0,654.0
17504.0,665.0
17508.0,673.0
17512.0,688.0
17516.0,706.0
17520.0,720.0
17524.0,733.0
17528.0,754.0
17532.0,773.0
17536.0,791.0
17540.0,816.0
17544.0,844.0
17548.0,867.0
17552.0,897.0
17556.0,934.0
17560.0,960.0
17564.0,176.0
17568.0,184.0
17572.0,534.0
17576.0,455.0
17580.0,398.0
17584.0,356.0
17588.0,315.0
17592.0,278.0
17596.0,251.0
17600.0,207.0
17604.0,176.0
17608.0,145.0
17612.0,119.0
17616.0,106.0
17620.0,100.0
17624.0,95.0
17628.0,94.0
17632.0,94.0
17636.0,93.0
17640.0,96.0
17644.0,113.0
17648.0,141.0
17652.0,155.0
17656.0,176.0
17660.0,190.0
17664.0,211.0
17668.0,224.0
17672.0,238.0
17676.0,258.0
17680.0,289.0
17684.0,315.0
17688.0,359.0
17692.0,378.0
17696.0,403.0
17700.0,433.0
17704.0,462.0
17708.0,490.0
17712.0,511.0
17716.0,539.0
17720.0,560.0
17724.0,576.0
17728.0,589.0
17732.0,597.0
17736.0,606.0
17740.0,617.0
17744.0,624.0
17748.0,629.0
17752.0,640.0
17756.0,645.0
17760.0,647.0
17764.0,653.0
17768.0,656.0
17772.0,657.0
17776.0,661.0
17780.0,669.0
17784.0,674.0
17788.0,679.0
17792.0,690.0
17796.0,699.0
17800.0,709.0
17804.0,722.0
17808.0,734.0
17812.0,748.0
17816.0,768.0
17820.0,784.0
17824.0,791.0
17828.0,814.0
17832.0,821.0
17836.0,837.0
17840.0,870.0
17844.0,895.0
17848.0,909.0
17852.0,924.0
17856.0,931.0
17860.0,950.0
17864.0,970.0
17868.0,981.0
17872.0,896.0
17876.0,922.0
17880.0,927.0
17884.0,943.0
17888.0,971.0
17892.0,986.0
17896.0,126.0
17900.0,127.0
17904.0,301.0
17908.0,171.0
17912.0,173.0
17916.0,176.0
17920.0,178.0
17924.0,239.0
17928.0,238.0
17932.0,238.0
17936.0,279.0
17940.0,285.0
17944.0,291.0
17948.0,268.0
17952.0,265.0
17956.0,285.0
17960.0,298.0
17964.0,258.0
17968.0,264.0
17972.0,255.0
17976.0,610.0
17980.0,228.0
17984.0,230.0
17988.0,232.0
17992.0,233.0
17996.0,218.0
18000.0,218.0
18004.0,216.0
18008.0,216.0
18012.0,215.0
18016.0,260.0
18020.0,258.0
18024.0,239.0
18028.0,241.0
18032.0,265.0
18036.0,224.0
18040.0,285.0
18044.0,243.0
18048.0,241.0
18052.0,277.0
18056.0,278.0
18060.0,279.0
18064.0,259.0
18068.0,260.0
18072.0,263.0
18076.0,253.0
18080.0,255.0
18084.0,270.0
18088.0,274.0
18092.0,275.0
18096.0,255.0
18100.0,253.0
18104.0,248.0
18108.0,245.0
18112.0,123.0
18116.0,124.0
18120.0,719.0
18124.0,292.0
18128.0,292.0
18132.0,289.0
18136.0,302.0
18140.0,305.0
18144.0,277.0
18148.0,279.0
18152.0,864.0
18156.0,287.0
18160.0,289.0
18164.0,271.0
18168.0,276.0
18172.0,274.0
18176.0,251.0
18180.0,249.0
18184.0,455.0
18188.0,263.0
18192.0,263.0
18196.0,639.0
18200.0,267.0
18204.0,269.0
18208.0,271.0
18212.0,752.0
18216.0,754.0
18220.0,521.0
18224.0,253.0
18228.0,252.0
18232.0,251.0
18236.0,37.0
18240.0,403.0
18244.0,404.0
18248.0,247.0
18252.0,230.0
18256.0,219.0
18260.0,173.0
18264.0,176.0
18268.0,404.0
18272.0,404.0
18276.0,405.0
18280.0,404.0
18284.0,404.0
18288.0,405.0
18292.0,405.0
18296.0,405.0
18300.0,405.0
18304.0,405.0
18308.0,398.0
18312.0,401.0
18316.0,403.0
18320.0,409.0
18324.0,16.0
18328.0,375.0
18332.0,409.0
18336.0,358.0
18340.0,364.0
18344.0,401.0
18348.0,404.0
18352.0,404.0
18356.0,346.0
18360.0,342.0
18364.0,345.0
18368.0,291.0
18372.0,293.0
18376.0,321.0
18380.0,892.0
18384.0,781.0
18388.0,709.0
18392.0,669.0
18396.0,624.0
18400.0,594.0
18404.0,653.0
18408.0,602.0
18412.0,607.0
18416.0,629.0
18420.0,656.0
18424.0,690.0
18428.0,728.0
18432.0,768.0
18436.0,822.0
18440.0,873.0
18444.0,921.0
18448.0,206.0
18452.0,213.0
18456.0,186.0
18460.0,206.0
18464.0,208.0
18468.0,210.0
18472.0,210.0
18476.0,208.0
18480.0,203.0
18484.0,209.0
18488.0,195.0
18492.0,193.0
18496.0,211.0
18500.0,213.0
18504.0,198.0
18508.0,198.0
18512.0,207.0
18516.0,205.0
18520.0,483.0
18524.0,122.0
18528.0,114.0
18532.0,929.0
18536.0,817.0
18540.0,733.0
18544.0,887.0
18548.0,653.0
18552.0,590.0
18556.0,511.0
18560.0,464.0
18564.0,614.0
18568.0,392.0
18572.0,537.0
18576.0,288.0
18580.0,480.0
18584.0,267.0
18588.0,247.0
18592.0,237.0
18596.0,233.0
18600.0,231.0
18604.0,235.0
18608.0,241.0
18612.0,243.0
18616.0,461.0
18620.0,265.0
18624.0,270.0
18628.0,288.0
18632.0,303.0
18636.0,311.0
18640.0,336.0
18644.0,336.0
18648.0,522.0
18652.0,349.0
18656.0,352.0
18660.0,361.0
18664.0,358.0
18668.0,363.0
18672.0,431.0
18676.0,363.0
18680.0,364.0
18684.0,363.0
18688.0,363.0
18692.0,362.0
18696.0,363.0
18700.0,361.0
18704.0,368.0
18708.0,364.0
18712.0,368.0
18716.0,371.0
18720.0,381.0
18724.0,591.0
18728.0,397.0
18732.0,407.0
18736.0,477.0
18740.0,417.0
18744.0,576.0
18748.0,845.0
18752.0,835.0
18756.0,820.0
18760.0,803.0
18764.0,787.0
18768.0,768.0
18772.0,754.0
18776.0,742.0
18780.0,727.0
18784.0,707.0
18788.0,883.0
18792.0,688.0
18796.0,673.0
18800.0,871.0
18804.0,646.0
18808.0,641.0
18812.0,631.0
18816.0,624.0
18820.0,776.0
18824.0,621.0
18828.0,612.0
18832.0,820.0
18836.0,617.0
18840.0,617.0
18844.0,809.0
18848.0,625.0
18852.0,631.0
18856.0,849.0
18860.0,648.0
18864.0,822.0
18868.0,674.0
18872.0,678.0
18876.0,693.0
18880.0,715.0
18884.0,722.0
18888.0,896.0
18892.0,762.0
18896.0,831.0
18900.0,804.0
18904.0,811.0
18908.0,874.0
18912.0,848.0
18916.0,854.0
18920.0,874.0
18924.0,896.0
18928.0,912.0
18932.0,921.0
18936.0,925.0
18940.0,928.0
18944.0,935.0
18948.0,929.0
18952.0,927.0
18956.0,922.0
18960.0,915.0
18964.0,912.0
18968.0,898.0
18972.0,880.0
18976.0,871.0
18980.0,851.0
18984.0,821.0
18988.0,813.0
18992.0,800.0
18996.0,789.0
19000.0,790.0
19004.0,785.0
19008.0,933.0
19012.0,963.0
19016.0,960.0
19020.0,957.0
19024.0,954.0
19028.0,953.0
19032.0,955.0
19036.0,958.0
19040.0,959.0
19044.0,971.0
19048.0,976.0
19052.0,993.0
19056.0,174.0
19060.0,172.0
19064.0,170.0
19068.0,171.0
19072.0,162.0
19076.0,163.0
19080.0,153.0
19084.0,132.0
19088.0,132.0
19092.0,149.0
19096.0,159.0
19100.0,108.0
19104.0,114.0
19108.0,134.0
19112.0,124.0
19116.0,115.0
19120.0,115.0
19124.0,116.0
19128.0,991.0
19132.0,982.0
19136.0,975.0
19140.0,905.0
19144.0,992.0
19148.0,988.0
19152.0,986.0
19156.0,981.0
19160.0,985.0
19164.0,993.0
19168.0,101.0
19172.0,104.0
19176.0,106.0
19180.0,181.0
19184.0,994.0
19188.0,989.0
19192.0,987.0
19196.0,987.0
19200.0,989.0
19204.0,993.0
19208.0,999.0
19212.0,997.0
19216.0,981.0
19220.0,976.0
19224.0,966.0
19228.0,962.0
19232.0,958.0
19236.0,959.0
19240.0,961.0
19244.0,959.0
19248.0,960.0
19252.0,969.0
19256.0,977.0
19260.0,981.0
19264.0,998.0
19268.0,991.0
19272.0,980.0
19276.0,979.0
19280.0,976.0
19284.0,977.0
19288.0,982.0
19292.0,986.0
19296.0,991.0
19300.0,118.0
19304.0,115.0
19308.0,113.0
19312.0,975.0
19316.0,843.0
19320.0,754.0
19324.0,663.0
19328.0,560.0
19332.0,479.0
19336.0,411.0
19340.0,332.0
19344.0,279.0
19348.0,233.0
19352.0,291.0
19356.0,143.0
19360.0,112.0
19364.0,94.0
19368.0,97.0
19372.0,97.0
19376.0,94.0
19380.0,98.0
19384.0,95.0
19388.0,384.0
19392.0,208.0
19396.0,305.0
19400.0,251.0
19404.0,361.0
19408.0,310.0
19412.0,327.0
19416.0,359.0
19420.0,380.0
19424.0,406.0
19428.0,416.0
19432.0,647.0
19436.0,445.0
19440.0,678.0
19444.0,464.0
19448.0,469.0
19452.0,479.0
19456.0,475.0
19460.0,639.0
19464.0,467.0
19468.0,578.0
19472.0,458.0
19476.0,447.0
19480.0,481.0
19484.0,426.0
19488.0,605.0
19492.0,397.0
19496.0,384.0
19500.0,368.0
19504.0,354.0
19508.0,431.0
19512.0,333.0
19516.0,352.0
19520.0,319.0
19524.0,304.0
19528.0,301.0
19532.0,301.0
19536.0,291.0
19540.0,296.0
19544.0,290.0
19548.0,290.0
19552.0,296.0
19556.0,302.0
19560.0,345.0
19564.0,316.0
19568.0,541.0
19572.0,336.0
19576.0,435.0
19580.0,369.0
19584.0,384.0
19588.0,410.0
19592.0,448.0
19596.0,462.0
19600.0,486.0
19604.0,646.0
19608.0,529.0
19612.0,549.0
19616.0,667.0
19620.0,560.0
19624.0,566.0
19628.0,560.0
19632.0,560.0
19636.0,546.0
19640.0,530.0
19644.0,723.0
19648.0,498.0
19652.0,490.0
19656.0,465.0
19660.0,666.0
19664.0,433.0
19668.0,511.0
19672.0,412.0
19676.0,407.0
19680.0,394.0
19684.0,457.0
19688.0,629.0
19692.0,656.0
19696.0,647.0
19700.0,642.0
19704.0,635.0
19708.0,625.0
19712.0,613.0
19716.0,607.0
19720.0,593.0
19724.0,596.0
19728.0,576.0
19732.0,560.0
19736.0,553.0
19740.0,545.0
19744.0,540.0
19748.0,529.0
19752.0,528.0
19756.0,527.0
19760.0,528.0
19764.0,532.0
19768.0,538.0
19772.0,550.0
19776.0,555.0
19780.0,561.0
19784.0,579.0
19788.0,589.0
19792.0,605.0
19796.0,629.0
19800.0,646.0
19804.0,661.0
19808.0,689.0
19812.0,697.0
19816.0,730.0
19820.0,759.0
19824.0,780.0
19828.0,800.0
19832.0,819.0
19836.0,848.0
19840.0,864.0
19844.0,880.0
19848.0,889.0
19852.0,910.0
19856.0,912.0
19860.0,918.0
19864.0,923.0
19868.0,925.0
19872.0,923.0
19876.0,922.0
19880.0,917.0
19884.0,913.0
19888.0,910.0
19892.0,896.0
19896.0,887.0
19900.0,880.0
19904.0,867.0
19908.0,861.0
19912.0,851.0
19916.0,843.0
19920.0,835.0
19924.0,832.0
19928.0,826.0
19932.0,820.0
19936.0,821.0
19940.0,821.0
19944.0,820.0
19948.0,893.0
19952.0,187.0
19956.0,210.0
19960.0,190.0
19964.0,206.0
19968.0,217.0
19972.0,177.0
19976.0,177.0
19980.0,177.0
19984.0,195.0
19988.0,193.0
19992.0,857.0
19996.0,843.0
20000.0,836.0
20004.0,835.0
20008.0,833.0
20012.0,834.0
20016.0,837.0
20020.0,839.0
20024.0,843.0
20028.0,846.0
20032.0,850.0
20036.0,855.0
20040.0,862.0
20044.0,868.0
20048.0,878.0
20052.0,881.0
20056.0,887.0
20060.0,895.0
20064.0,901.0
20068.0,907.0
20072.0,911.0
20076.0,912.0
20080.0,911.0
20084.0,912.0
20088.0,911.0
20092.0,891.0
20096.0,903.0
20100.0,897.0
20104.0,890.0
20108.0,882.0
20112.0,870.0
20116.0,855.0
20120.0,847.0
20124.0,835.0
20128.0,816.0
20132.0,802.0
20136.0,788.0
20140.0,769.0
20144.0,751.0
20148.0,732.0
20152.0,717.0
20156.0,689.0
20160.0,675.0
20164.0,659.0
20168.0,640.0
20172.0,626.0
20176.0,598.0
20180.0,590.0
20184.0,573.0
20188.0,559.0
20192.0,532.0
20196.0,523.0
20200.0,505.0
20204.0,491.0
20208.0,482.0
20212.0,471.0
20216.0,464.0
20220.0,449.0
20224.0,445.0
20228.0,441.0
20232.0,439.0
20236.0,439.0
20240.0,438.0
20244.0,443.0
20248.0,447.0
20252.0,448.0
20256.0,451.0
20260.0,457.0
20264.0,461.0
20268.0,464.0
20272.0,469.0
20276.0,472.0
20280.0,479.0
20284.0,481.0
20288.0,481.0
20292.0,486.0
20296.0,487.0
20300.0,490.0
20304.0,489.0
20308.0,485.0
20312.0,483.0
20316.0,482.0
20320.0,466.0
20324.0,466.0
20328.0,459.0
20332.0,448.0
20336.0,430.0
20340.0,421.0
20344.0,403.0
20348.0,395.0
20352.0,380.0
20356.0,368.0
20360.0,357.0
20364.0,346.0
20368.0,336.0
20372.0,333.0
20376.0,329.0
20380.0,327.0
20384.0,326.0
20388.0,549.0
20392.0,236.0
20396.0,150.0
20400.0,94.0
20404.0,96.0
20408.0,118.0
20412.0,95.0
20416.0,95.0
20420.0,95.0
20424.0,174.0
20428.0,95.0
20432.0,94.0
20436.0,102.0
20440.0,95.0
20444.0,308.0
20448.0,96.0
20452.0,94.0
20456.0,96.0
20460.0,304.0
20464.0,93.0
20468.0,96.0
20472.0,306.0
20476.0,94.0
20480.0,96.0
20484.0,96.0
20488.0,95.0
20492.0,95.0
20496.0,97.0
20500.0,96.0
20504.0,297.0
20508.0,96.0
20512.0,96.0
20516.0,112.0
20520.0,90.0
20524.0,297.0
20528.0,94.0
20532.0,93.0
20536.0,306.0
20540.0,93.0
20544.0,96.0
20548.0,97.0
20552.0,93.0
20556.0,245.0
20560.0,96.0
20564.0,95.0
20568.0,108.0
20572.0,93.0
20576.0,246.0
20580.0,94.0
20584.0,95.0
20588.0,95.0
20592.0,94.0
20596.0,94.0
20600.0,101.0
20604.0,95.0
20608.0,119.0
20612.0,94.0
20616.0,99.0
20620.0,93.0
20624.0,98.0
20628.0,91.0
20632.0,281.0
20636.0,93.0
20640.0,96.0
20644.0,149.0
20648.0,93.0
20652.0,283.0
20656.0,94.0
20660.0,94.0
20664.0,107.0
20668.0,95.0
20672.0,224.0
20676.0,93.0
20680.0,98.0
20684.0,94.0
20688.0,106.0
20692.0,95.0
20696.0,309.0
20700.0,95.0
20704.0,94.0
20708.0,308.0
20712.0,96.0
20716.0,97.0
20720.0,94.0
20724.0,95.0
20728.0,96.0
20732.0,93.0
20736.0,96.0
20740.0,93.0
20744.0,99.0
20748.0,95.0
20752.0,118.0
20756.0,93.0
20760.0,93.0
20764.0,308.0
20768.0,94.0
20772.0,112.0
20776.0,94.0
20780.0,95.0
20784.0,99.0
20788.0,94.0
20792.0,96.0
20796.0,96.0
20800.0,95.0
20804.0,93.0
20808.0,171.0
20812.0,94.0
20816.0,78.0
20820.0,95.0
20824.0,96.0
20828.0,96.0
20832.0,222.0
20836.0,95.0
20840.0,307.0
20844.0,91.0
20848.0,296.0
20852.0,96.0
20856.0,94.0
20860.0,92.0
20864.0,91.0
20868.0,93.0
20872.0,91.0
20876.0,95.0
20880.0,93.0
20884.0,94.0
20888.0,91.0
20892.0,94.0
20896.0,94.0
20900.0,66.0
20904.0,94.0
20908.0,95.0
20912.0,94.0
20916.0,94.0
20920.0,94.0
20924.0,92.0
20928.0,91.0
20932.0,91.0
20936.0,93.0
20940.0,93.0
20944.0,93.0
20948.0,96.0
20952.0,93.0
20956.0,74.0
20960.0,93.0
20964.0,94.0
20968.0,94.0
20972.0,93.0
20976.0,95.0
20980.0,91.0
20984.0,92.0
20988.0,91.0
20992.0,93.0
20996.0,92.0
21000.0,94.0
21004.0,97.0
21008.0,94.0
21012.0,93.0
21016.0,93.0
21020.0,93.0
21024.0,94.0
21028.0,91.0
21032.0,91.0
21036.0,92.0
21040.0,91.0
21044.0,95.0
21048.0,93.0
21052.0,96.0
21056.0,92.0
21060.0,94.0
21064.0,93.0
21068.0,94.0
21072.0,95.0
21076.0,93.0
21080.0,92.0
21084.0,94.0
21088.0,94.0
21092.0,93.0
21096.0,94.0
21100.0,93.0
21104.0,91.0
21108.0,95.0
21112.0,94.0
21116.0,94.0
21120.0,94.0
21124.0,93.0
21128.0,91.0
21132.0,93.0
21136.0,91.0
21140.0,94.0
21144.0,91.0
21148.0,93.0
21152.0,94.0
21156.0,93.0
21160.0,91.0
21164.0,94.0
21168.0,93.0
21172.0,90.0
21176.0,95.0
21180.0,93.0
21184.0,93.0
21188.0,93.0
21192.0,95.0
21196.0,95.0
21200.0,91.0
21204.0,94.0
21208.0,80.0
21212.0,93.0
21216.0,93.0
21220.0,91.0
21224.0,93.0
21228.0,93.0
21232.0,93.0
21236.0,93.0
21240.0,91.0
21244.0,93.0
21248.0,93.0
21252.0,93.0
21256.0,91.0
21260.0,93.0
21264.0,93.0
21268.0,92.0
21272.0,92.0
21276.0,91.0
21280.0,91.0
21284.0,94.0
21288.0,91.0
21292.0,90.0
21296.0,94.0
21300.0,92.0
21304.0,91.0
21308.0,95.0
21312.0,92.0
21316.0,95.0
21320.0,93.0
21324.0,93.0
21328.0,115.0
21332.0,93.0
21336.0,91.0
21340.0,94.0
21344.0,93.0
21348.0,93.0
21352.0,91.0
21356.0,91.0
21360.0,91.0
21364.0,92.0
21368.0,93.0
21372.0,94.0
21376.0,94.0
21380.0,92.0
21384.0,115.0
21388.0,93.0
21392.0,94.0
21396.0,85.0
21400.0,94.0
21404.0,71.0
21408.0,94.0
21412.0,93.0
21416.0,93.0
21420.0,93.0
21424.0,87.0
21428.0,93.0
21432.0,94.0
21436.0,94.0
21440.0,93.0
21444.0,94.0
21448.0,92.0
21452.0,93.0
21456.0,96.0
21460.0,93.0
21464.0,94.0
21468.0,95.0
21472.0,92.0
21476.0,94.0
21480.0,94.0
21484.0,96.0
21488.0,95.0
21492.0,95.0
21496.0,95.0
21500.0,619.0
21504.0,684.0
21508.0,726.0
21512.0,786.0
21516.0,845.0
21520.0,895.0
21524.0,959.0
21528.0,251.0
21532.0,272.0
21536.0,268.0
21540.0,246.0
21544.0,245.0
21548.0,244.0
21552.0,265.0
21556.0,267.0
21560.0,267.0
21564.0,273.0
21568.0,263.0
21572.0,246.0
21576.0,248.0
21580.0,249.0
21584.0,255.0
21588.0,274.0
21592.0,276.0
21596.0,275.0
21600.0,274.0
21604.0,285.0
21608.0,283.0
21612.0,307.0
21616.0,311.0
21620.0,314.0
21624.0,312.0
21628.0,315.0
21632.0,325.0
21636.0,321.0
21640.0,350.0
21644.0,356.0
21648.0,399.0
21652.0,399.0
21656.0,398.0
21660.0,402.0
21664.0,402.0
21668.0,402.0
21672.0,400.0
21676.0,396.0
21680.0,405.0
21684.0,403.0
21688.0,399.0
21692.0,379.0
21696.0,206.0
21700.0,199.0
21704.0,194.0
21708.0,187.0
21712.0,192.0
21716.0,213.0
21720.0,212.0
21724.0,212.0
21728.0,247.0
21732.0,248.0
21736.0,239.0
21740.0,225.0
21744.0,976.0
21748.0,845.0
21752.0,795.0
21756.0,966.0
21760.0,700.0
21764.0,867.0
21768.0,643.0
21772.0,613.0
21776.0,791.0
21780.0,571.0
21784.0,560.0
21788.0,546.0
21792.0,537.0
21796.0,531.0
21800.0,735.0
21804.0,521.0
21808.0,727.0
21812.0,521.0
21816.0,511.0
21820.0,592.0
21824.0,528.0
21828.0,535.0
21832.0,722.0
21836.0,547.0
21840.0,560.0
21844.0,561.0
21848.0,566.0
21852.0,782.0
21856.0,576.0
21860.0,589.0
21864.0,622.0
21868.0,607.0
21872.0,635.0
21876.0,639.0
21880.0,658.0
21884.0,881.0
21888.0,711.0
21892.0,770.0
21896.0,783.0
21900.0,816.0
21904.0,908.0
21908.0,899.0
21912.0,944.0
21916.0,244.0
21920.0,246.0
21924.0,247.0
21928.0,252.0
21932.0,254.0
21936.0,260.0
21940.0,255.0
21944.0,214.0
21948.0,216.0
21952.0,236.0
21956.0,206.0
21960.0,204.0
21964.0,237.0
21968.0,225.0
21972.0,235.0
21976.0,255.0
21980.0,259.0
21984.0,241.0
21988.0,251.0
21992.0,248.0
21996.0,229.0
22000.0,965.0
22004.0,862.0
22008.0,826.0
22012.0,781.0
22016.0,742.0
22020.0,918.0
22024.0,683.0
22028.0,786.0
22032.0,641.0
22036.0,624.0
22040.0,614.0
22044.0,599.0
22048.0,804.0
22052.0,587.0
22056.0,588.0
22060.0,589.0
22064.0,582.0
22068.0,786.0
22072.0,591.0
22076.0,734.0
22080.0,601.0
22084.0,603.0
22088.0,815.0
22092.0,612.0
22096.0,611.0
22100.0,627.0
22104.0,614.0
22108.0,617.0
22112.0,615.0
22116.0,614.0
22120.0,657.0
22124.0,605.0
22128.0,602.0
22132.0,599.0
22136.0,592.0
22140.0,629.0
22144.0,583.0
22148.0,777.0
22152.0,580.0
22156.0,576.0
22160.0,773.0
22164.0,570.0
22168.0,573.0
22172.0,580.0
22176.0,575.0
22180.0,683.0
22184.0,583.0
22188.0,593.0
22192.0,621.0
22196.0,611.0
22200.0,830.0
22204.0,642.0
22208.0,657.0
22212.0,688.0
22216.0,694.0
22220.0,928.0
22224.0,747.0
22228.0,768.0
22232.0,995.0
22236.0,807.0
22240.0,838.0
22244.0,867.0
22248.0,880.0
22252.0,938.0
22256.0,949.0
22260.0,996.0
22264.0,214.0
22268.0,168.0
22272.0,707.0
22276.0,216.0
22280.0,215.0
22284.0,214.0
22288.0,199.0
22292.0,197.0
22296.0,195.0
22300.0,207.0
22304.0,211.0
22308.0,214.0
22312.0,197.0
22316.0,198.0
22320.0,199.0
22324.0,228.0
22328.0,211.0
22332.0,185.0
22336.0,193.0
22340.0,403.0
22344.0,403.0
22348.0,542.0
22352.0,503.0
22356.0,497.0
22360.0,469.0
22364.0,554.0
22368.0,438.0
22372.0,422.0
22376.0,602.0
22380.0,400.0
22384.0,388.0
22388.0,592.0
22392.0,369.0
22396.0,363.0
22400.0,355.0
22404.0,338.0
22408.0,336.0
22412.0,334.0
22416.0,320.0
22420.0,319.0
22424.0,319.0
22428.0,309.0
22432.0,511.0
22436.0,306.0
22440.0,304.0
22444.0,496.0
22448.0,305.0
22452.0,335.0
22456.0,318.0
22460.0,324.0
22464.0,351.0
22468.0,340.0
22472.0,352.0
22476.0,382.0
22480.0,375.0
22484.0,532.0
22488.0,408.0
22492.0,420.0
22496.0,640.0
22500.0,459.0
22504.0,477.0
22508.0,691.0
22512.0,526.0
22516.0,548.0
22520.0,770.0
22524.0,581.0
22528.0,611.0
22532.0,693.0
22536.0,652.0
22540.0,678.0
22544.0,706.0
22548.0,720.0
22552.0,882.0
22556.0,780.0
22560.0,998.0
22564.0,819.0
22568.0,841.0
22572.0,862.0
22576.0,862.0
22580.0,987.0
22584.0,882.0
22588.0,890.0
22592.0,896.0
22596.0,894.0
22600.0,895.0
22604.0,880.0
22608.0,872.0
22612.0,834.0
22616.0,791.0
22620.0,784.0
22624.0,754.0
22628.0,736.0
22632.0,880.0
22636.0,693.0
22640.0,690.0
22644.0,677.0
22648.0,673.0
22652.0,667.0
22656.0,666.0
22660.0,670.0
22664.0,719.0
22668.0,846.0
22672.0,692.0
22676.0,917.0
22680.0,717.0
22684.0,865.0
22688.0,750.0
22692.0,822.0
22696.0,783.0
22700.0,798.0
22704.0,819.0
22708.0,896.0
22712.0,695.0
22716.0,703.0
22720.0,886.0
22724.0,709.0
22728.0,713.0
22732.0,719.0
22736.0,934.0
22740.0,727.0
22744.0,741.0
22748.0,891.0
22752.0,755.0
22756.0,762.0
22760.0,774.0
22764.0,995.0
22768.0,793.0
22772.0,803.0
22776.0,837.0
22780.0,848.0
22784.0,929.0
22788.0,882.0
22792.0,900.0
22796.0,907.0
22800.0,913.0
22804.0,930.0
22808.0,948.0
22812.0,954.0
22816.0,954.0
22820.0,954.0
22824.0,954.0
22828.0,923.0
22832.0,911.0
22836.0,896.0
22840.0,885.0
22844.0,899.0
22848.0,852.0
22852.0,831.0
22856.0,828.0
22860.0,829.0
22864.0,800.0
22868.0,899.0
22872.0,816.0
22876.0,784.0
22880.0,774.0
22884.0,928.0
22888.0,768.0
22892.0,768.0
22896.0,784.0
22900.0,949.0
22904.0,783.0
22908.0,797.0
22912.0,802.0
22916.0,805.0
22920.0,816.0
22924.0,830.0
22928.0,835.0
22932.0,848.0
22936.0,867.0
22940.0,870.0
22944.0,882.0
22948.0,901.0
22952.0,903.0
22956.0,921.0
22960.0,944.0
22964.0,879.0
22968.0,880.0
22972.0,867.0
22976.0,870.0
22980.0,874.0
22984.0,880.0
22988.0,880.0
22992.0,880.0
22996.0,897.0
23000.0,896.0
23004.0,905.0
23008.0,911.0
23012.0,922.0
23016.0,935.0
23020.0,944.0
23024.0,955.0
23028.0,974.0
23032.0,977.0
23036.0,997.0
23040.0,120.0
23044.0,119.0
23048.0,118.0
23052.0,168.0
23056.0,165.0
23060.0,162.0
23064.0,166.0
23068.0,217.0
23072.0,216.0
23076.0,216.0
23080.0,212.0
23084.0,200.0
23088.0,202.0
23092.0,206.0
23096.0,228.0
23100.0,169.0
23104.0,163.0
23108.0,210.0
23112.0,212.0
23116.0,216.0
23120.0,242.0
23124.0,251.0
23128.0,259.0
23132.0,867.0
23136.0,948.0
23140.0,896.0
23144.0,802.0
23148.0,720.0
23152.0,671.0
23156.0,625.0
23160.0,602.0
23164.0,565.0
23168.0,533.0
23172.0,511.0
23176.0,509.0
23180.0,497.0
23184.0,486.0
23188.0,480.0
23192.0,482.0
23196.0,482.0
23200.0,485.0
23204.0,494.0
23208.0,502.0
23212.0,511.0
23216.0,511.0
23220.0,528.0
23224.0,530.0
23228.0,537.0
23232.0,543.0
23236.0,546.0
23240.0,551.0
23244.0,555.0
23248.0,560.0
23252.0,560.0
23256.0,567.0
23260.0,575.0
23264.0,586.0
23268.0,581.0
23272.0,589.0
23276.0,600.0
23280.0,619.0
23284.0,628.0
23288.0,641.0
23292.0,656.0
23296.0,682.0
23300.0,703.0
23304.0,720.0
23308.0,727.0
23312.0,752.0
23316.0,804.0
23320.0,818.0
23324.0,103.0
23328.0,860.0
23332.0,883.0
23336.0,927.0
23340.0,942.0
23344.0,994.0
23348.0,997.0
23352.0,977.0
23356.0,125.0
23360.0,127.0
23364.0,107.0
23368.0,232.0
23372.0,142.0
23376.0,144.0
23380.0,128.0
23384.0,127.0
23388.0,128.0
23392.0,134.0
23396.0,192.0
23400.0,192.0
23404.0,191.0
23408.0,223.0
23412.0,222.0
23416.0,222.0
23420.0,880.0
23424.0,891.0
23428.0,899.0
23432.0,914.0
23436.0,925.0
23440.0,930.0
23444.0,934.0
23448.0,932.0
23452.0,943.0
23456.0,954.0
23460.0,975.0
23464.0,983.0
23468.0,188.0
23472.0,169.0
23476.0,194.0
23480.0,195.0
23484.0,198.0
23488.0,230.0
23492.0,255.0
23496.0,254.0
23500.0,194.0
23504.0,200.0
23508.0,201.0
23512.0,177.0
23516.0,152.0
23520.0,107.0
23524.0,997.0
23528.0,857.0
23532.0,575.0
23536.0,586.0
23540.0,607.0
23544.0,602.0
23548.0,823.0
23552.0,624.0
23556.0,634.0
23560.0,643.0
23564.0,647.0
23568.0,863.0
23572.0,658.0
23576.0,874.0
23580.0,665.0
23584.0,663.0
23588.0,663.0
23592.0,656.0
23596.0,859.0
23600.0,640.0
23604.0,631.0
23608.0,627.0
23612.0,609.0
23616.0,597.0
23620.0,579.0
23624.0,763.0
23628.0,537.0
23632.0,726.0
23636.0,496.0
23640.0,483.0
23644.0,478.0
23648.0,456.0
23652.0,448.0
23656.0,436.0
23660.0,427.0
23664.0,629.0
23668.0,412.0
23672.0,407.0
23676.0,617.0
23680.0,400.0
23684.0,610.0
23688.0,401.0
23692.0,401.0
23696.0,618.0
23700.0,411.0
23704.0,418.0
23708.0,445.0
23712.0,433.0
23716.0,445.0
23720.0,458.0
23724.0,469.0
23728.0,560.0
23732.0,496.0
23736.0,548.0
23740.0,534.0
23744.0,573.0
23748.0,579.0
23752.0,806.0
23756.0,601.0
23760.0,615.0
23764.0,625.0
23768.0,625.0
23772.0,817.0
23776.0,631.0
23780.0,628.0
23784.0,627.0
23788.0,623.0
23792.0,614.0
23796.0,603.0
23800.0,591.0
23804.0,579.0
23808.0,569.0
23812.0,558.0
23816.0,541.0
23820.0,528.0
23824.0,501.0
23828.0,489.0
23832.0,474.0
23836.0,455.0
23840.0,443.0
23844.0,431.0
23848.0,420.0
23852.0,406.0
23856.0,399.0
23860.0,386.0
23864.0,378.0
23868.0,369.0
23872.0,363.0
23876.0,357.0
23880.0,352.0
23884.0,351.0
23888.0,350.0
23892.0,400.0
23896.0,560.0
23900.0,546.0
23904.0,539.0
23908.0,528.0
23912.0,511.0
23916.0,498.0
23920.0,490.0
23924.0,473.0
23928.0,463.0
23932.0,442.0
23936.0,432.0
23940.0,418.0
23944.0,435.0
23948.0,384.0
23952.0,379.0
23956.0,368.0
23960.0,356.0
23964.0,341.0
23968.0,332.0
23972.0,322.0
23976.0,315.0
23980.0,306.0
23984.0,304.0
23988.0,292.0
23992.0,289.0
23996.0,284.0
24000.0,281.0
24004.0,280.0
24008.0,279.0
24012.0,283.0
24016.0,288.0
24020.0,296.0
24024.0,304.0
24028.0,322.0
24032.0,341.0
24036.0,359.0
24040.0,375.0
24044.0,394.0
24048.0,409.0
24052.0,421.0
24056.0,435.0
24060.0,448.0
24064.0,457.0
24068.0,464.0
24072.0,473.0
24076.0,477.0
24080.0,477.0
24084.0,469.0
24088.0,462.0
24092.0,445.0
24096.0,432.0
24100.0,415.0
24104.0,395.0
24108.0,374.0
24112.0,354.0
24116.0,334.0
24120.0,312.0
24124.0,290.0
24128.0,271.0
24132.0,250.0
24136.0,241.0
24140.0,225.0
24144.0,214.0
24148.0,207.0
24152.0,198.0
24156.0,193.0
24160.0,191.0
24164.0,192.0
24168.0,192.0
24172.0,196.0
24176.0,205.0
24180.0,208.0
24184.0,218.0
24188.0,227.0
24192.0,241.0
24196.0,251.0
24200.0,267.0
24204.0,279.0
24208.0,298.0
24212.0,310.0
24216.0,327.0
24220.0,342.0
24224.0,357.0
24228.0,372.0
24232.0,384.0
24236.0,394.0
24240.0,402.0
24244.0,411.0
24248.0,417.0
24252.0,426.0
24256.0,427.0
24260.0,432.0
24264.0,432.0
24268.0,368.0
24272.0,227.0
24276.0,240.0
24280.0,247.0
24284.0,258.0
24288.0,267.0
24292.0,272.0
24296.0,295.0
24300.0,304.0
24304.0,319.0
24308.0,333.0
24312.0,343.0
24316.0,358.0
24320.0,368.0
24324.0,393.0
24328.0,416.0
24332.0,432.0
24336.0,457.0
24340.0,465.0
24344.0,478.0
24348.0,489.0
24352.0,493.0
24356.0,493.0
24360.0,491.0
24364.0,483.0
24368.0,471.0
24372.0,464.0
24376.0,455.0
24380.0,437.0
24384.0,421.0
24388.0,405.0
24392.0,384.0
24396.0,372.0
24400.0,358.0
24404.0,343.0
24408.0,335.0
24412.0,321.0
24416.0,310.0
24420.0,304.0
24424.0,301.0
24428.0,295.0
24432.0,290.0
24436.0,291.0
24440.0,293.0
24444.0,296.0
24448.0,302.0
24452.0,310.0
24456.0,320.0
24460.0,336.0
24464.0,361.0
24468.0,377.0
24472.0,400.0
24476.0,425.0
24480.0,450.0
24484.0,467.0
24488.0,496.0
24492.0,519.0
24496.0,544.0
24500.0,551.0
24504.0,574.0
24508.0,576.0
24512.0,590.0
24516.0,592.0
24520.0,593.0
24524.0,595.0
24528.0,594.0
24532.0,591.0
24536.0,585.0
24540.0,576.0
24544.0,571.0
24548.0,560.0
24552.0,550.0
24556.0,539.0
24560.0,528.0
24564.0,511.0
24568.0,497.0
24572.0,491.0
24576.0,471.0
24580.0,463.0
24584.0,453.0
24588.0,444.0
24592.0,434.0
24596.0,428.0
24600.0,422.0
24604.0,416.0
24608.0,411.0
24612.0,407.0
24616.0,402.0
24620.0,404.0
24624.0,405.0
24628.0,404.0
24632.0,410.0
24636.0,501.0
24640.0,725.0
24644.0,716.0
24648.0,706.0
24652.0,695.0
24656.0,689.0
24660.0,678.0
24664.0,660.0
24668.0,650.0
24672.0,640.0
24676.0,630.0
24680.0,615.0
24684.0,607.0
24688.0,593.0
24692.0,587.0
24696.0,577.0
24700.0,572.0
24704.0,566.0
24708.0,560.0
24712.0,554.0
24716.0,549.0
24720.0,547.0
24724.0,545.0
24728.0,545.0
24732.0,544.0
24736.0,547.0
24740.0,547.0
24744.0,550.0
24748.0,558.0
24752.0,560.0
24756.0,560.0
24760.0,575.0
24764.0,580.0
24768.0,590.0
24772.0,593.0
24776.0,611.0
24780.0,623.0
24784.0,631.0
24788.0,645.0
24792.0,656.0
24796.0,675.0
24800.0,688.0
24804.0,701.0
24808.0,708.0
24812.0,745.0
24816.0,761.0
24820.0,778.0
24824.0,800.0
24828.0,807.0
24832.0,823.0
24836.0,832.0
24840.0,838.0
24844.0,842.0
24848.0,843.0
24852.0,845.0
24856.0,841.0
24860.0,835.0
24864.0,832.0
24868.0,823.0
24872.0,817.0
24876.0,798.0
24880.0,798.0
24884.0,787.0
24888.0,779.0
24892.0,768.0
24896.0,759.0
24900.0,755.0
24904.0,749.0
24908.0,741.0
24912.0,740.0
24916.0,737.0
24920.0,734.0
24924.0,739.0
24928.0,743.0
24932.0,747.0
24936.0,755.0
24940.0,761.0
24944.0,771.0
24948.0,976.0
24952.0,921.0
24956.0,937.0
24960.0,944.0
24964.0,954.0
24968.0,951.0
24972.0,997.0
24976.0,963.0
24980.0,971.0
24984.0,966.0
24988.0,964.0
24992.0,958.0
24996.0,944.0
25000.0,938.0
25004.0,915.0
25008.0,882.0
25012.0,864.0
25016.0,821.0
25020.0,803.0
25024.0,994.0
25028.0,771.0
25032.0,753.0
25036.0,941.0
25040.0,717.0
25044.0,695.0
25048.0,867.0
25052.0,656.0
25056.0,641.0
25060.0,814.0
25064.0,610.0
25068.0,593.0
25072.0,786.0
25076.0,572.0
25080.0,560.0
25084.0,624.0
25088.0,541.0
25092.0,529.0
25096.0,705.0
25100.0,511.0
25104.0,509.0
25108.0,694.0
25112.0,511.0
25116.0,508.0
25120.0,711.0
25124.0,510.0
25128.0,510.0
25132.0,731.0
25136.0,528.0
25140.0,530.0
25144.0,727.0
25148.0,550.0
25152.0,560.0
25156.0,774.0
25160.0,574.0
25164.0,576.0
25168.0,601.0
25172.0,604.0
25176.0,619.0
25180.0,624.0
25184.0,625.0
25188.0,640.0
25192.0,626.0
25196.0,806.0
25200.0,616.0
25204.0,787.0
25208.0,592.0
25212.0,642.0
25216.0,560.0
25220.0,544.0
25224.0,511.0
25228.0,491.0
25232.0,458.0
25236.0,621.0
25240.0,407.0
25244.0,388.0
25248.0,368.0
25252.0,349.0
25256.0,529.0
25260.0,314.0
25264.0,471.0
25268.0,291.0
25272.0,274.0
25276.0,321.0
25280.0,261.0
25284.0,462.0
25288.0,257.0
25292.0,258.0
25296.0,270.0
25300.0,267.0
25304.0,442.0
25308.0,511.0
25312.0,498.0
25316.0,711.0
25320.0,496.0
25324.0,498.0
25328.0,705.0
25332.0,500.0
25336.0,497.0
25340.0,501.0
25344.0,718.0
25348.0,511.0
25352.0,511.0
25356.0,522.0
25360.0,538.0
25364.0,535.0
25368.0,547.0
25372.0,737.0
25376.0,566.0
25380.0,576.0
25384.0,585.0
25388.0,811.0
25392.0,613.0
25396.0,624.0
25400.0,822.0
25404.0,662.0
25408.0,670.0
25412.0,873.0
25416.0,735.0
25420.0,775.0
25424.0,961.0
25428.0,794.0
25432.0,827.0
25436.0,861.0
25440.0,875.0
25444.0,896.0
25448.0,926.0
25452.0,941.0
25456.0,976.0
25460.0,992.0
25464.0,106.0
25468.0,138.0
25472.0,137.0
25476.0,526.0
25480.0,176.0
25484.0,178.0
25488.0,853.0
25492.0,231.0
25496.0,235.0
25500.0,233.0
25504.0,218.0
25508.0,218.0
25512.0,266.0
25516.0,236.0
25520.0,322.0
25524.0,299.0
25528.0,267.0
25532.0,535.0
25536.0,591.0
25540.0,106.0
25544.0,143.0
25548.0,143.0
25552.0,142.0
25556.0,179.0
25560.0,171.0
25564.0,202.0
25568.0,246.0
25572.0,247.0
25576.0,270.0
25580.0,278.0
25584.0,275.0
25588.0,260.0
25592.0,261.0
25596.0,276.0
25600.0,259.0
25604.0,296.0
25608.0,293.0
25612.0,303.0
25616.0,300.0
25620.0,298.0
25624.0,278.0
25628.0,280.0
25632.0,281.0
25636.0,228.0
25640.0,228.0
25644.0,229.0
25648.0,280.0
25652.0,278.0
25656.0,301.0
25660.0,298.0
25664.0,254.0
25668.0,253.0
25672.0,254.0
25676.0,226.0
25680.0,207.0
25684.0,229.0
25688.0,207.0
25692.0,33.0
25696.0,163.0
25700.0,190.0
25704.0,171.0
25708.0,148.0
25712.0,160.0
25716.0,141.0
25720.0,139.0
25724.0,123.0
25728.0,124.0
25732.0,999.0
25736.0,933.0
25740.0,883.0
25744.0,840.0
25748.0,779.0
25752.0,721.0
25756.0,681.0
25760.0,625.0
25764.0,581.0
25768.0,547.0
25772.0,474.0
25776.0,406.0
25780.0,343.0
25784.0,294.0
25788.0,240.0
25792.0,192.0
25796.0,146.0
25800.0,114.0
25804.0,97.0
25808.0,94.0
25812.0,94.0
25816.0,94.0
25820.0,93.0
25824.0,94.0
25828.0,92.0
25832.0,93.0
25836.0,95.0
25840.0,95.0
25844.0,96.0
25848.0,97.0
25852.0,113.0
25856.0,128.0
25860.0,145.0
25864.0,150.0
25868.0,192.0
25872.0,211.0
25876.0,255.0
25880.0,277.0
25884.0,311.0
25888.0,345.0
25892.0,375.0
25896.0,401.0
25900.0,442.0
25904.0,471.0
25908.0,496.0
25912.0,546.0
25916.0,557.0
25920.0,576.0
25924.0,602.0
25928.0,615.0
25932.0,633.0
25936.0,647.0
25940.0,657.0
25944.0,667.0
25948.0,673.0
25952.0,675.0
25956.0,677.0
25960.0,675.0
25964.0,675.0
25968.0,674.0
25972.0,669.0
25976.0,667.0
25980.0,659.0
25984.0,659.0
25988.0,654.0
25992.0,649.0
25996.0,642.0
26000.0,625.0
26004.0,630.0
26008.0,629.0
26012.0,627.0
26016.0,666.0
26020.0,292.0
26024.0,268.0
26028.0,559.0
26032.0,173.0
26036.0,172.0
26040.0,293.0
26044.0,277.0
26048.0,986.0
26052.0,964.0
26056.0,925.0
26060.0,855.0
26064.0,783.0
26068.0,755.0
26072.0,719.0
26076.0,686.0
26080.0,661.0
26084.0,646.0
26088.0,603.0
26092.0,592.0
26096.0,582.0
26100.0,567.0
26104.0,560.0
26108.0,551.0
26112.0,548.0
26116.0,554.0
26120.0,545.0
26124.0,547.0
26128.0,547.0
26132.0,561.0
26136.0,571.0
26140.0,583.0
26144.0,592.0
26148.0,606.0
26152.0,615.0
26156.0,625.0
26160.0,634.0
26164.0,646.0
26168.0,656.0
26172.0,665.0
26176.0,675.0
26180.0,697.0
26184.0,707.0
26188.0,725.0
26192.0,737.0
26196.0,750.0
26200.0,766.0
26204.0,859.0
26208.0,990.0
26212.0,124.0
26216.0,123.0
26220.0,144.0
26224.0,147.0
26228.0,157.0
26232.0,153.0
26236.0,171.0
26240.0,169.0
26244.0,169.0
26248.0,164.0
26252.0,161.0
26256.0,160.0
26260.0,182.0
26264.0,184.0
26268.0,193.0
26272.0,176.0
26276.0,177.0
26280.0,216.0
26284.0,216.0
26288.0,240.0
26292.0,228.0
26296.0,230.0
26300.0,255.0
26304.0,254.0
26308.0,251.0
26312.0,252.0
26316.0,251.0
26320.0,216.0
26324.0,215.0
26328.0,217.0
26332.0,234.0
26336.0,235.0
26340.0,237.0
26344.0,246.0
26348.0,229.0
26352.0,269.0
26356.0,222.0
26360.0,221.0
26364.0,219.0
26368.0,224.0
26372.0,248.0
26376.0,229.0
26380.0,232.0
26384.0,128.0
26388.0,173.0
26392.0,169.0
26396.0,186.0
26400.0,174.0
26404.0,173.0
26408.0,171.0
26412.0,190.0
26416.0,193.0
26420.0,949.0
26424.0,182.0
26428.0,180.0
26432.0,187.0
26436.0,190.0
26440.0,196.0
26444.0,193.0
26448.0,188.0
26452.0,198.0
26456.0,198.0
26460.0,220.0
26464.0,204.0
26468.0,206.0
26472.0,207.0
26476.0,225.0
26480.0,224.0
26484.0,201.0
26488.0,199.0
26492.0,219.0
26496.0,221.0
26500.0,258.0
26504.0,263.0
26508.0,403.0
26512.0,943.0
26516.0,880.0
26520.0,844.0
26524.0,811.0
26528.0,720.0
26532.0,683.0
26536.0,661.0
26540.0,640.0
26544.0,614.0
26548.0,597.0
26552.0,588.0
26556.0,577.0
26560.0,576.0
26564.0,576.0
26568.0,577.0
26572.0,583.0
26576.0,592.0
26580.0,624.0
26584.0,631.0
26588.0,650.0
26592.0,662.0
26596.0,689.0
26600.0,705.0
26604.0,735.0
26608.0,751.0
26612.0,793.0
26616.0,816.0
26620.0,973.0
26624.0,854.0
26628.0,902.0
26632.0,944.0
26636.0,127.0
26640.0,230.0
26644.0,228.0
26648.0,237.0
26652.0,238.0
26656.0,228.0
26660.0,229.0
26664.0,204.0
26668.0,185.0
26672.0,184.0
26676.0,181.0
26680.0,190.0
26684.0,197.0
26688.0,401.0
26692.0,402.0
26696.0,403.0
26700.0,403.0
26704.0,399.0
26708.0,221.0
26712.0,203.0
26716.0,112.0
26720.0,258.0
26724.0,346.0
26728.0,347.0
26732.0,384.0
26736.0,193.0
26740.0,203.0
26744.0,222.0
26748.0,206.0
26752.0,205.0
26756.0,186.0
26760.0,187.0
26764.0,238.0
26768.0,224.0
26772.0,223.0
26776.0,222.0
26780.0,219.0
26784.0,223.0
26788.0,220.0
26792.0,216.0
26796.0,213.0
26800.0,181.0
26804.0,180.0
26808.0,180.0
26812.0,236.0
26816.0,201.0
26820.0,954.0
26824.0,976.0
26828.0,709.0
26832.0,624.0
26836.0,550.0
26840.0,690.0
26844.0,477.0
26848.0,400.0
26852.0,336.0
26856.0,279.0
26860.0,187.0
26864.0,150.0
26868.0,161.0
26872.0,94.0
26876.0,95.0
26880.0,94.0
26884.0,93.0
26888.0,176.0
26892.0,95.0
26896.0,169.0
26900.0,96.0
26904.0,96.0
26908.0,89.0
26912.0,95.0
26916.0,96.0
26920.0,94.0
26924.0,121.0
26928.0,94.0
26932.0,96.0
26936.0,96.0
26940.0,101.0
26944.0,110.0
26948.0,128.0
26952.0,144.0
26956.0,337.0
26960.0,426.0
26964.0,444.0
26968.0,444.0
26972.0,450.0
26976.0,453.0
26980.0,469.0
26984.0,570.0
26988.0,496.0
26992.0,508.0
26996.0,527.0
27000.0,537.0
27004.0,624.0
27008.0,559.0
27012.0,702.0
27016.0,576.0
27020.0,580.0
27024.0,613.0
27028.0,593.0
27032.0,598.0
27036.0,672.0
27040.0,603.0
27044.0,745.0
27048.0,606.0
27052.0,597.0
27056.0,665.0
27060.0,589.0
27064.0,585.0
27068.0,574.0
27072.0,559.0
27076.0,546.0
27080.0,528.0
27084.0,508.0
27088.0,500.0
27092.0,561.0
27096.0,469.0
27100.0,458.0
27104.0,533.0
27108.0,432.0
27112.0,413.0
27116.0,405.0
27120.0,399.0
27124.0,398.0
27128.0,385.0
27132.0,384.0
27136.0,380.0
27140.0,379.0
27144.0,421.0
27148.0,379.0
27152.0,589.0
27156.0,388.0
27160.0,394.0
27164.0,407.0
27168.0,412.0
27172.0,631.0
27176.0,434.0
27180.0,543.0
27184.0,467.0
27188.0,481.0
27192.0,509.0
27196.0,603.0
27200.0,560.0
27204.0,585.0
27208.0,739.0
27212.0,613.0
27216.0,636.0
27220.0,625.0
27224.0,627.0
27228.0,624.0
27232.0,612.0
27236.0,601.0
27240.0,576.0
27244.0,563.0
27248.0,539.0
27252.0,522.0
27256.0,496.0
27260.0,481.0
27264.0,468.0
27268.0,460.0
27272.0,476.0
27276.0,791.0
27280.0,789.0
27284.0,784.0
27288.0,782.0
27292.0,767.0
27296.0,753.0
27300.0,751.0
27304.0,741.0
27308.0,721.0
27312.0,711.0
27316.0,699.0
27320.0,688.0
27324.0,679.0
27328.0,670.0
27332.0,662.0
27336.0,661.0
27340.0,656.0
27344.0,656.0
27348.0,656.0
27352.0,661.0
27356.0,673.0
27360.0,688.0
27364.0,707.0
27368.0,730.0
27372.0,752.0
27376.0,782.0
27380.0,811.0
27384.0,837.0
27388.0,859.0
27392.0,880.0
27396.0,906.0
27400.0,923.0
27404.0,943.0
27408.0,960.0
27412.0,975.0
27416.0,980.0
27420.0,981.0
27424.0,984.0
27428.0,980.0
27432.0,976.0
27436.0,971.0
27440.0,963.0
27444.0,951.0
27448.0,941.0
27452.0,930.0
27456.0,915.0
27460.0,901.0
27464.0,891.0
27468.0,880.0
27472.0,871.0
27476.0,864.0
27480.0,858.0
27484.0,850.0
27488.0,880.0
27492.0,127.0
27496.0,850.0
27500.0,810.0
27504.0,816.0
27508.0,834.0
27512.0,849.0
27516.0,880.0
27520.0,908.0
27524.0,961.0
27528.0,988.0
27532.0,853.0
27536.0,980.0
27540.0,961.0
27544.0,944.0
27548.0,933.0
27552.0,923.0
27556.0,913.0
27560.0,910.0
27564.0,907.0
27568.0,909.0
27572.0,908.0
27576.0,912.0
27580.0,917.0
27584.0,921.0
27588.0,935.0
27592.0,944.0
27596.0,959.0
27600.0,974.0
27604.0,987.0
27608.0,127.0
27612.0,127.0
27616.0,153.0
27620.0,156.0
27624.0,160.0
27628.0,188.0
27632.0,188.0
27636.0,639.0
27640.0,173.0
27644.0,172.0
27648.0,165.0
27652.0,142.0
27656.0,175.0
27660.0,505.0
27664.0,121.0
27668.0,142.0
27672.0,119.0
27676.0,148.0
27680.0,147.0
27684.0,392.0
27688.0,158.0
27692.0,152.0
27696.0,158.0
27700.0,161.0
27704.0,422.0
27708.0,443.0
27712.0,463.0
27716.0,475.0
27720.0,485.0
27724.0,502.0
27728.0,527.0
27732.0,543.0
27736.0,561.0
27740.0,587.0
27744.0,610.0
27748.0,640.0
27752.0,671.0
27756.0,707.0
27760.0,742.0
27764.0,828.0
27768.0,817.0
27772.0,857.0
27776.0,898.0
27780.0,944.0
27784.0,977.0
27788.0,994.0
27792.0,997.0
27796.0,973.0
27800.0,918.0
27804.0,892.0
27808.0,871.0
27812.0,843.0
27816.0,818.0
27820.0,804.0
27824.0,994.0
27828.0,784.0
27832.0,789.0
27836.0,787.0
27840.0,870.0
27844.0,848.0
27848.0,839.0
27852.0,830.0
27856.0,816.0
27860.0,825.0
27864.0,949.0
27868.0,820.0
27872.0,822.0
27876.0,832.0
27880.0,832.0
27884.0,890.0
27888.0,848.0
27892.0,943.0
27896.0,874.0
27900.0,882.0
27904.0,902.0
27908.0,912.0
27912.0,944.0
27916.0,973.0
27920.0,979.0
27924.0,954.0
27928.0,943.0
27932.0,915.0
27936.0,912.0
27940.0,906.0
27944.0,891.0
27948.0,897.0
27952.0,879.0
27956.0,872.0
27960.0,862.0
27964.0,877.0
27968.0,880.0
27972.0,895.0
27976.0,976.0
27980.0,995.0
27984.0,976.0
27988.0,963.0
27992.0,963.0
27996.0,962.0
28000.0,970.0
28004.0,971.0
28008.0,990.0
28012.0,995.0
28016.0,934.0
28020.0,877.0
28024.0,785.0
28028.0,727.0
28032.0,688.0
28036.0,642.0
28040.0,616.0
28044.0,563.0
28048.0,499.0
28052.0,432.0
28056.0,411.0
28060.0,400.0
28064.0,386.0
28068.0,367.0
28072.0,356.0
28076.0,347.0
28080.0,340.0
28084.0,336.0
28088.0,336.0
28092.0,338.0
28096.0,339.0
28100.0,348.0
28104.0,356.0
28108.0,364.0
28112.0,373.0
28116.0,402.0
28120.0,421.0
28124.0,432.0
28128.0,451.0
28132.0,496.0
28136.0,540.0
28140.0,985.0
28144.0,273.0
28148.0,274.0
28152.0,213.0
28156.0,210.0
28160.0,114.0
28164.0,234.0
28168.0,236.0
28172.0,237.0
28176.0,221.0
28180.0,238.0
28184.0,206.0
28188.0,217.0
28192.0,216.0
28196.0,195.0
28200.0,201.0
28204.0,753.0
28208.0,190.0
28212.0,175.0
28216.0,160.0
28220.0,160.0
28224.0,175.0
28228.0,175.0
28232.0,339.0
28236.0,331.0
28240.0,146.0
28244.0,147.0
28248.0,148.0
28252.0,148.0
28256.0,468.0
28260.0,993.0
28264.0,992.0
28268.0,999.0
28272.0,100.0
28276.0,101.0
28280.0,109.0
28284.0,103.0
28288.0,978.0
28292.0,963.0
28296.0,958.0
28300.0,942.0
28304.0,913.0
28308.0,897.0
28312.0,878.0
28316.0,857.0
28320.0,834.0
28324.0,826.0
28328.0,789.0
28332.0,810.0
28336.0,799.0
28340.0,791.0
28344.0,784.0
28348.0,783.0
28352.0,780.0
28356.0,781.0
28360.0,781.0
28364.0,781.0
28368.0,784.0
28372.0,791.0
28376.0,788.0
28380.0,794.0
28384.0,793.0
28388.0,811.0
28392.0,816.0
28396.0,820.0
28400.0,830.0
28404.0,882.0
28408.0,623.0
28412.0,619.0
28416.0,595.0
28420.0,587.0
28424.0,576.0
28428.0,565.0
28432.0,560.0
28436.0,553.0
28440.0,546.0
28444.0,538.0
28448.0,534.0
28452.0,528.0
28456.0,528.0
28460.0,525.0
28464.0,521.0
28468.0,521.0
28472.0,522.0
28476.0,511.0
28480.0,523.0
28484.0,527.0
28488.0,523.0
28492.0,530.0
28496.0,534.0
28500.0,541.0
28504.0,547.0
28508.0,551.0
28512.0,559.0
28516.0,562.0
28520.0,573.0
28524.0,576.0
28528.0,586.0
28532.0,592.0
28536.0,599.0
28540.0,608.0
28544.0,615.0
28548.0,619.0
28552.0,624.0
28556.0,627.0
28560.0,647.0
28564.0,641.0
28568.0,645.0
28572.0,641.0
28576.0,640.0
28580.0,640.0
28584.0,629.0
28588.0,627.0
28592.0,622.0
28596.0,617.0
28600.0,607.0
28604.0,596.0
28608.0,592.0
28612.0,582.0
28616.0,574.0
28620.0,554.0
28624.0,527.0
28628.0,511.0
28632.0,499.0
28636.0,485.0
28640.0,460.0
28644.0,436.0
28648.0,422.0
28652.0,409.0
28656.0,400.0
28660.0,387.0
28664.0,368.0
28668.0,362.0
28672.0,355.0
28676.0,348.0
28680.0,342.0
28684.0,342.0
28688.0,345.0
28692.0,349.0
28696.0,353.0
28700.0,360.0
28704.0,368.0
28708.0,372.0
28712.0,382.0
28716.0,390.0
28720.0,397.0
28724.0,401.0
28728.0,413.0
28732.0,420.0
28736.0,432.0
28740.0,308.0
28744.0,272.0
28748.0,399.0
28752.0,374.0
28756.0,352.0
28760.0,336.0
28764.0,315.0
28768.0,292.0
28772.0,273.0
28776.0,259.0
28780.0,241.0
28784.0,225.0
28788.0,213.0
28792.0,206.0
28796.0,203.0
28800.0,197.0
28804.0,199.0
28808.0,197.0
28812.0,202.0
28816.0,207.0
28820.0,214.0
28824.0,227.0
28828.0,240.0
28832.0,251.0
28836.0,267.0
28840.0,277.0
28844.0,291.0
28848.0,306.0
28852.0,320.0
28856.0,331.0
28860.0,345.0
28864.0,357.0
28868.0,365.0
28872.0,373.0
28876.0,378.0
28880.0,384.0
28884.0,384.0
28888.0,391.0
28892.0,381.0
28896.0,383.0
28900.0,357.0
28904.0,354.0
28908.0,336.0
28912.0,320.0
28916.0,306.0
28920.0,281.0
28924.0,259.0
28928.0,241.0
28932.0,217.0
28936.0,187.0
28940.0,163.0
28944.0,144.0
28948.0,207.0
28952.0,93.0
28956.0,95.0
28960.0,94.0
28964.0,93.0
28968.0,93.0
28972.0,91.0
28976.0,93.0
28980.0,94.0
28984.0,96.0
28988.0,94.0
28992.0,94.0
28996.0,95.0
29000.0,93.0
29004.0,95.0
29008.0,93.0
29012.0,94.0
29016.0,95.0
29020.0,94.0
29024.0,93.0
29028.0,96.0
29032.0,98.0
29036.0,100.0
29040.0,103.0
29044.0,105.0
29048.0,108.0
29052.0,107.0
29056.0,105.0
29060.0,101.0
29064.0,97.0
29068.0,95.0
29072.0,94.0
29076.0,90.0
29080.0,93.0
29084.0,90.0
29088.0,95.0
29092.0,93.0
29096.0,95.0
29100.0,93.0
29104.0,93.0
29108.0,93.0
29112.0,95.0
29116.0,93.0
29120.0,93.0
29124.0,92.0
29128.0,93.0
29132.0,94.0
29136.0,93.0
29140.0,93.0
29144.0,95.0
29148.0,93.0
29152.0,93.0
29156.0,92.0
29160.0,95.0
29164.0,92.0
29168.0,94.0
29172.0,93.0
29176.0,93.0
29180.0,93.0
29184.0,93.0
29188.0,93.0
29192.0,95.0
29196.0,92.0
29200.0,94.0
29204.0,93.0
29208.0,95.0
29212.0,94.0
29216.0,94.0
29220.0,93.0
29224.0,94.0
29228.0,92.0
29232.0,80.0
29236.0,92.0
29240.0,94.0
29244.0,95.0
29248.0,94.0
29252.0,93.0
29256.0,93.0
29260.0,94.0
29264.0,94.0
29268.0,94.0
29272.0,94.0
29276.0,96.0
29280.0,93.0
29284.0,93.0
29288.0,95.0
29292.0,96.0
29296.0,93.0
29300.0,94.0
29304.0,93.0
29308.0,93.0
29312.0,94.0
29316.0,95.0
29320.0,94.0
29324.0,93.0
29328.0,95.0
29332.0,94.0
29336.0,94.0
29340.0,94.0
29344.0,93.0
29348.0,103.0
29352.0,94.0
29356.0,91.0
29360.0,94.0
29364.0,93.0
29368.0,93.0
29372.0,94.0
29376.0,93.0
29380.0,94.0
29384.0,93.0
29388.0,94.0
29392.0,92.0
29396.0,95.0
29400.0,94.0
29404.0,95.0
29408.0,94.0
29412.0,94.0
29416.0,94.0
29420.0,95.0
29424.0,94.0
29428.0,94.0
29432.0,95.0
29436.0,93.0
29440.0,92.0
29444.0,94.0
29448.0,92.0
29452.0,93.0
29456.0,94.0
29460.0,95.0
29464.0,92.0
29468.0,94.0
29472.0,96.0
29476.0,94.0
29480.0,94.0
29484.0,93.0
29488.0,94.0
29492.0,93.0
29496.0,93.0
29500.0,94.0
29504.0,92.0
29508.0,95.0
29512.0,93.0
29516.0,94.0
29520.0,90.0
29524.0,99.0
29528.0,95.0
29532.0,95.0
29536.0,92.0
29540.0,95.0
29544.0,92.0
29548.0,95.0
29552.0,93.0
29556.0,93.0
29560.0,95.0
29564.0,93.0
29568.0,95.0
29572.0,93.0
29576.0,93.0
29580.0,94.0
29584.0,94.0
29588.0,95.0
29592.0,93.0
29596.0,96.0
29600.0,91.0
29604.0,91.0
29608.0,95.0
29612.0,96.0
29616.0,93.0
29620.0,93.0
29624.0,95.0
29628.0,91.0
29632.0,93.0
29636.0,93.0
29640.0,95.0
29644.0,94.0
29648.0,94.0
29652.0,94.0
29656.0,94.0
29660.0,91.0
29664.0,95.0
29668.0,94.0
29672.0,92.0
29676.0,93.0
29680.0,94.0
29684.0,91.0
29688.0,93.0
29692.0,94.0
29696.0,94.0
29700.0,93.0
29704.0,94.0
29708.0,93.0
29712.0,97.0
29716.0,93.0
29720.0,96.0
29724.0,92.0
29728.0,93.0
29732.0,96.0
29736.0,93.0
29740.0,91.0
29744.0,93.0
29748.0,95.0
29752.0,92.0
29756.0,94.0
29760.0,91.0
29764.0,94.0
29768.0,93.0
29772.0,94.0
29776.0,93.0
29780.0,95.0
29784.0,94.0
29788.0,205.0
29792.0,243.0
29796.0,272.0
29800.0,295.0
29804.0,332.0
29808.0,352.0
29812.0,377.0
29816.0,406.0
29820.0,432.0
29824.0,451.0
29828.0,474.0
29832.0,487.0
29836.0,498.0
29840.0,511.0
29844.0,527.0
29848.0,528.0
29852.0,529.0
29856.0,528.0
29860.0,525.0
29864.0,511.0
29868.0,507.0
29872.0,498.0
29876.0,490.0
29880.0,475.0
29884.0,464.0
29888.0,455.0
29892.0,442.0
29896.0,432.0
29900.0,417.0
29904.0,401.0
29908.0,392.0
29912.0,381.0
29916.0,369.0
29920.0,358.0
29924.0,352.0
29928.0,346.0
29932.0,339.0
29936.0,336.0
29940.0,336.0
29944.0,335.0
29948.0,334.0
29952.0,336.0
29956.0,336.0
29960.0,334.0
29964.0,343.0
29968.0,347.0
29972.0,352.0
29976.0,355.0
29980.0,367.0
29984.0,371.0
29988.0,375.0
29992.0,383.0
29996.0,389.0
30000.0,395.0
30004.0,398.0
30008.0,399.0
30012.0,400.0
30016.0,400.0
30020.0,400.0
30024.0,298.0
30028.0,93.0
30032.0,93.0
30036.0,90.0
30040.0,91.0
30044.0,94.0
30048.0,93.0
30052.0,93.0
30056.0,93.0
30060.0,94.0
30064.0,94.0
30068.0,93.0
30072.0,94.0
30076.0,93.0
30080.0,97.0
30084.0,91.0
30088.0,93.0
30092.0,94.0
30096.0,92.0
30100.0,92.0
30104.0,93.0
30108.0,92.0
30112.0,92.0
30116.0,91.0
30120.0,92.0
30124.0,94.0
30128.0,103.0
30132.0,93.0
30136.0,93.0
30140.0,91.0
30144.0,94.0
30148.0,93.0
30152.0,93.0
30156.0,95.0
30160.0,94.0
30164.0,94.0
30168.0,93.0
30172.0,91.0
30176.0,91.0
30180.0,91.0
30184.0,93.0
30188.0,94.0
30192.0,94.0
30196.0,93.0
30200.0,93.0
30204.0,93.0
30208.0,94.0
30212.0,94.0
30216.0,93.0
30220.0,91.0
30224.0,94.0
30228.0,94.0
30232.0,93.0
30236.0,95.0
30240.0,94.0
30244.0,93.0
30248.0,97.0
30252.0,91.0
30256.0,94.0
30260.0,96.0
30264.0,133.0
30268.0,180.0
30272.0,233.0
30276.0,280.0
30280.0,357.0
30284.0,415.0
30288.0,479.0
30292.0,561.0
30296.0,623.0
30300.0,673.0
30304.0,749.0
30308.0,792.0
30312.0,825.0
30316.0,848.0
30320.0,877.0
30324.0,885.0
30328.0,899.0
30332.0,890.0
30336.0,901.0
30340.0,864.0
30344.0,801.0
30348.0,770.0
30352.0,719.0
30356.0,670.0
30360.0,829.0
30364.0,542.0
30368.0,634.0
30372.0,430.0
30376.0,341.0
30380.0,95.0
30384.0,95.0
30388.0,94.0
30392.0,96.0
30396.0,94.0
30400.0,305.0
30404.0,93.0
30408.0,97.0
30412.0,294.0
30416.0,87.0
30420.0,95.0
30424.0,251.0
30428.0,94.0
30432.0,125.0
30436.0,95.0
30440.0,93.0
30444.0,272.0
30448.0,95.0
30452.0,171.0
30456.0,94.0
30460.0,94.0
30464.0,285.0
30468.0,93.0
30472.0,303.0
30476.0,95.0
30480.0,95.0
30484.0,95.0
30488.0,96.0
30492.0,93.0
30496.0,103.0
30500.0,143.0
30504.0,94.0
30508.0,285.0
30512.0,93.0
30516.0,95.0
30520.0,96.0
30524.0,93.0
30528.0,99.0
30532.0,95.0
30536.0,95.0
30540.0,95.0
30544.0,95.0
30548.0,265.0
30552.0,95.0
30556.0,97.0
30560.0,93.0
30564.0,95.0
30568.0,97.0
30572.0,93.0
30576.0,165.0
30580.0,94.0
30584.0,96.0
30588.0,95.0
30592.0,93.0
30596.0,294.0
30600.0,94.0
30604.0,94.0
30608.0,97.0
30612.0,95.0
30616.0,304.0
30620.0,95.0
30624.0,96.0
30628.0,96.0
30632.0,96.0
30636.0,98.0
30640.0,228.0
30644.0,94.0
30648.0,115.0
30652.0,96.0
30656.0,94.0
30660.0,263.0
30664.0,95.0
30668.0,96.0
30672.0,97.0
30676.0,62.0
30680.0,176.0
30684.0,93.0
30688.0,305.0
30692.0,94.0
30696.0,96.0
30700.0,95.0
30704.0,96.0
30708.0,158.0
30712.0,94.0
30716.0,96.0
30720.0,307.0
30724.0,96.0
30728.0,95.0
30732.0,99.0
30736.0,95.0
30740.0,95.0
30744.0,97.0
30748.0,86.0
30752.0,95.0
30756.0,100.0
30760.0,96.0
30764.0,294.0
30768.0,95.0
30772.0,94.0
30776.0,176.0
30780.0,94.0
30784.0,95.0
30788.0,290.0
30792.0,94.0
30796.0,98.0
30800.0,96.0
30804.0,95.0
30808.0,286.0
30812.0,95.0
30816.0,95.0
30820.0,222.0
30824.0,95.0
30828.0,297.0
30832.0,95.0
30836.0,95.0
30840.0,96.0
30844.0,97.0
30848.0,94.0
30852.0,94.0
30856.0,94.0
30860.0,93.0
30864.0,93.0
30868.0,96.0
30872.0,307.0
30876.0,93.0
30880.0,262.0
30884.0,96.0
30888.0,94.0
30892.0,94.0
30896.0,97.0
30900.0,112.0
30904.0,94.0
30908.0,295.0
30912.0,94.0
30916.0,96.0
30920.0,94.0
30924.0,94.0
30928.0,93.0
30932.0,96.0
30936.0,102.0
30940.0,94.0
30944.0,94.0
30948.0,101.0
30952.0,96.0
30956.0,302.0
30960.0,95.0
30964.0,92.0
30968.0,94.0
30972.0,93.0
30976.0,93.0
30980.0,94.0
30984.0,93.0
30988.0,95.0
30992.0,94.0
30996.0,93.0
31000.0,94.0
31004.0,91.0
31008.0,94.0
31012.0,93.0
31016.0,92.0
31020.0,95.0
31024.0,80.0
31028.0,95.0
31032.0,93.0
31036.0,93.0
31040.0,93.0
31044.0,93.0
31048.0,93.0
31052.0,92.0
31056.0,94.0
31060.0,94.0
31064.0,95.0
31068.0,93.0
31072.0,95.0
31076.0,94.0
31080.0,91.0
31084.0,94.0
31088.0,94.0
31092.0,94.0
31096.0,92.0
31100.0,93.0
31104.0,94.0
31108.0,93.0
31112.0,95.0
31116.0,93.0
31120.0,94.0
31124.0,94.0
31128.0,94.0
31132.0,94.0
31136.0,93.0
31140.0,94.0
31144.0,91.0
31148.0,93.0
31152.0,92.0
31156.0,95.0
31160.0,93.0
31164.0,95.0
31168.0,94.0
31172.0,95.0
31176.0,93.0
31180.0,93.0
31184.0,94.0
31188.0,95.0
31192.0,94.0
31196.0,94.0
31200.0,93.0
31204.0,95.0
31208.0,94.0
31212.0,94.0
31216.0,94.0
31220.0,96.0
31224.0,94.0
31228.0,93.0
31232.0,94.0
31236.0,93.0
31240.0,93.0
31244.0,93.0
31248.0,94.0
31252.0,91.0
31256.0,95.0
31260.0,93.0
31264.0,91.0
31268.0,94.0
31272.0,95.0
31276.0,95.0
31280.0,95.0
31284.0,93.0
31288.0,91.0
31292.0,98.0
31296.0,95.0
31300.0,94.0
31304.0,95.0
31308.0,95.0
31312.0,101.0
31316.0,121.0
31320.0,145.0
31324.0,167.0
31328.0,200.0
31332.0,229.0
31336.0,253.0
31340.0,288.0
31344.0,331.0
31348.0,367.0
31352.0,401.0
31356.0,445.0
31360.0,829.0
31364.0,145.0
31368.0,148.0
31372.0,186.0
31376.0,187.0
31380.0,271.0
31384.0,269.0
31388.0,267.0
31392.0,249.0
31396.0,247.0
31400.0,231.0
31404.0,233.0
31408.0,252.0
31412.0,266.0
31416.0,248.0
31420.0,269.0
31424.0,739.0
31428.0,265.0
31432.0,267.0
31436.0,268.0
31440.0,269.0
31444.0,267.0
31448.0,262.0
31452.0,264.0
31456.0,267.0
31460.0,251.0
31464.0,262.0
31468.0,260.0
31472.0,259.0
31476.0,239.0
31480.0,910.0
31484.0,870.0
31488.0,836.0
31492.0,806.0
31496.0,767.0
31500.0,721.0
31504.0,711.0
31508.0,889.0
31512.0,658.0
31516.0,832.0
31520.0,627.0
31524.0,608.0
31528.0,790.0
31532.0,592.0
31536.0,579.0
31540.0,613.0
31544.0,242.0
31548.0,241.0
31552.0,239.0
31556.0,243.0
31560.0,243.0
31564.0,243.0
31568.0,262.0
31572.0,264.0
31576.0,976.0
31580.0,891.0
31584.0,862.0
31588.0,796.0
31592.0,770.0
31596.0,725.0
31600.0,739.0
31604.0,672.0
31608.0,704.0
31612.0,656.0
31616.0,637.0
31620.0,633.0
31624.0,626.0
31628.0,667.0
31632.0,631.0
31636.0,640.0
31640.0,654.0
31644.0,854.0
31648.0,682.0
31652.0,694.0
31656.0,915.0
31660.0,721.0
31664.0,753.0
31668.0,813.0
31672.0,848.0
31676.0,877.0
31680.0,944.0
31684.0,921.0
31688.0,943.0
31692.0,991.0
31696.0,982.0
31700.0,947.0
31704.0,927.0
31708.0,912.0
31712.0,902.0
31716.0,890.0
31720.0,882.0
31724.0,877.0
31728.0,869.0
31732.0,863.0
31736.0,859.0
31740.0,855.0
31744.0,845.0
31748.0,859.0
31752.0,863.0
31756.0,866.0
31760.0,871.0
31764.0,878.0
31768.0,886.0
31772.0,890.0
31776.0,896.0
31780.0,899.0
31784.0,906.0
31788.0,912.0
31792.0,915.0
31796.0,917.0
31800.0,922.0
31804.0,925.0
31808.0,926.0
31812.0,928.0
31816.0,926.0
31820.0,924.0
31824.0,919.0
31828.0,918.0
31832.0,912.0
31836.0,910.0
31840.0,906.0
31844.0,897.0
31848.0,883.0
31852.0,865.0
31856.0,853.0
31860.0,842.0
31864.0,831.0
31868.0,816.0
31872.0,784.0
31876.0,752.0
31880.0,737.0
31884.0,721.0
31888.0,706.0
31892.0,665.0
31896.0,639.0
31900.0,606.0
31904.0,595.0
31908.0,581.0
31912.0,566.0
31916.0,560.0
31920.0,542.0
31924.0,527.0
31928.0,507.0
31932.0,496.0
31936.0,486.0
31940.0,467.0
31944.0,464.0
31948.0,457.0
31952.0,449.0
31956.0,443.0
31960.0,435.0
31964.0,429.0
31968.0,428.0
31972.0,423.0
31976.0,400.0
31980.0,240.0
31984.0,229.0
31988.0,203.0
31992.0,182.0
31996.0,167.0
