time,value
0.0,0.08113590263691683
4.0,0.08113590263691683
8.0,0.08113590263691683
12.0,0.08316430020283976
16.0,0.08113590263691683
20.0,0.08012170385395538
24.0,0.08316430020283976
28.0,0.0821501014198783
32.0,0.2434077079107505
36.0,0.5050709939148073
40.0,0.5030425963488844
44.0,0.5
48.0,0.49594320486815413
52.0,0.4908722109533469
56.0,0.4847870182555781
60.0,0.4746450304259635
64.0,0.4726166328600406
68.0,0.4685598377281947
72.0,0.4665314401622718
76.0,0.45841784989858014
80.0,0.45740365111561865
84.0,0.45740365111561865
88.0,0.45740365111561865
92.0,0.45740365111561865
96.0,0.46247464503042596
100.0,0.4716024340770791
104.0,0.473630831643002
108.0,0.4766734279918864
112.0,0.48073022312373226
116.0,0.4918864097363083
120.0,0.5050709939148073
124.0,0.5202839756592292
128.0,0.5243407707910751
132.0,0.5486815415821501
136.0,0.5547667342799188
140.0,0.5618661257606491
144.0,0.5851926977687627
148.0,0.5983772819472617
152.0,0.6075050709939148
156.0,0.6328600405679513
160.0,0.6460446247464503
164.0,0.6551724137931034
168.0,0.6632860040567952
172.0,0.6683569979716024
176.0,0.6744421906693712
180.0,0.6795131845841785
184.0,0.6845841784989858
188.0,0.6876267748478702
192.0,0.6866125760649088
196.0,0.6886409736308317
200.0,0.6866125760649088
204.0,0.6724137931034483
208.0,0.6815415821501014
212.0,0.6774847870182555
216.0,0.6703853955375254
220.0,0.6673427991886409
224.0,0.6592292089249493
228.0,0.652129817444219
232.0,0.6399594320486816
236.0,0.6369168356997972
240.0,0.6288032454361054
244.0,0.6247464503042597
248.0,0.6217038539553753
252.0,0.6186612576064908
256.0,0.6146044624746451
260.0,0.6146044624746451
264.0,0.6166328600405679
268.0,0.6146044624746451
272.0,0.6115618661257607
276.0,0.6146044624746451
280.0,0.6146044624746451
284.0,0.6186612576064908
288.0,0.6206896551724138
292.0,0.6247464503042597
296.0,0.6288032454361054
300.0,0.6338742393509128
304.0,0.6399594320486816
308.0,0.6430020283975659
312.0,0.6511156186612576
316.0,0.6572008113590264
320.0,0.6673427991886409
324.0,0.678498985801217
328.0,0.6876267748478702
332.0,0.6957403651115619
336.0,0.7028397565922921
340.0,0.7170385395537525
344.0,0.7200811359026369
348.0,0.731237322515213
352.0,0.7434077079107505
356.0,0.7494929006085193
360.0,0.7525354969574036
364.0,0.768762677484787
368.0,0.7728194726166329
372.0,0.7799188640973631
376.0,0.781947261663286
380.0,0.7860040567951319
384.0,0.7545638945233266
388.0,0.7271805273833671
392.0,0.7393509127789046
396.0,0.7454361054766734
400.0,0.7515212981744422
404.0,0.7606490872210954
408.0,0.77079107505071
412.0,0.7789046653144016
416.0,0.7829614604462475
420.0,0.795131845841785
424.0,0.8073022312373225
428.0,0.8144016227180527
432.0,0.821501014198783
436.0,0.8326572008113591
440.0,0.8427991886409736
444.0,0.8549695740365112
448.0,0.8640973630831643
452.0,0.8782961460446247
456.0,0.8803245436105477
460.0,0.8935091277890467
464.0,0.9016227180527383
468.0,0.9117647058823529
472.0,0.920892494929006
476.0,0.9310344827586207
480.0,0.9381338742393509
484.0,0.9452332657200812
488.0,0.9553752535496958
492.0,0.9614604462474645
496.0,0.9634888438133874
500.0,0.973630831643002
504.0,0.9756592292089249
508.0,0.9766734279918864
512.0,0.9827586206896551
516.0,0.9858012170385395
520.0,0.9888438133874239
524.0,0.9878296146044625
528.0,0.9878296146044625
532.0,0.9878296146044625
536.0,0.9817444219066938
540.0,0.9837728194726166
544.0,0.9756592292089249
548.0,0.9716024340770791
552.0,0.9665314401622718
556.0,0.9614604462474645
560.0,0.9584178498985801
564.0,0.9513184584178499
568.0,0.9442190669371197
572.0,0.9310344827586207
576.0,0.9219066937119675
580.0,0.920892494929006
584.0,0.9127789046653144
588.0,0.8995943204868154
592.0,0.8904665314401623
596.0,0.9026369168356998
600.0,0.8864097363083164
604.0,0.8823529411764706
608.0,0.8813387423935092
612.0,0.8823529411764706
616.0,0.8853955375253549
620.0,0.8864097363083164
624.0,0.8904665314401623
628.0,0.8955375253549696
632.0,0.896551724137931
636.0,0.11359026369168357
640.0,0.11257606490872211
644.0,0.10243407707910751
648.0,0.10344827586206896
652.0,0.10446247464503043
656.0,0.9929006085192698
660.0,0.9766734279918864
664.0,0.9695740365111561
668.0,0.9655172413793104
672.0,0.9594320486815415
676.0,0.9543610547667343
680.0,0.9513184584178499
684.0,0.9553752535496958
688.0,0.9776876267748479
692.0,1.0
696.0,0.768762677484787
700.0,0.7545638945233266
704.0,0.757606490872211
708.0,0.7170385395537525
712.0,0.7008113590263692
716.0,0.6855983772819473
720.0,0.6683569979716024
724.0,0.7799188640973631
728.0,0.6480730223123732
732.0,0.6267748478701826
736.0,0.7403651115618661
740.0,0.5973630831643002
744.0,0.5811359026369168
748.0,0.5750507099391481
752.0,0.5740365111561866
756.0,0.5699797160243407
760.0,0.5679513184584178
764.0,0.7484787018255578
768.0,0.5709939148073022
772.0,0.5730223123732252
776.0,0.7505070993914807
780.0,0.5811359026369168
784.0,0.6957403651115619
788.0,0.592292089249493
792.0,0.592292089249493
796.0,0.5983772819472617
800.0,0.6064908722109533
804.0,0.6125760649087221
808.0,0.6196754563894523
812.0,0.6227180527383367
816.0,0.8144016227180527
820.0,0.6288032454361054
824.0,0.6348884381338742
828.0,0.8194726166328601
832.0,0.6359026369168357
836.0,0.7971602434077079
840.0,0.6419878296146044
844.0,0.6348884381338742
848.0,0.6267748478701826
852.0,0.7667342799188641
856.0,0.6166328600405679
860.0,0.603448275862069
864.0,0.5983772819472617
868.0,0.8012170385395537
872.0,0.5841784989858012
876.0,0.5720081135902637
880.0,0.6186612576064908
884.0,0.5496957403651116
888.0,0.5354969574036511
892.0,0.7119675456389453
896.0,0.5192697768762677
900.0,0.49594320486815413
904.0,0.6774847870182555
908.0,0.47971602434077076
912.0,0.4634888438133874
916.0,0.603448275862069
920.0,0.44421906693711966
924.0,0.4330628803245436
928.0,0.40365111561866124
932.0,0.6075050709939148
936.0,0.3935091277890467
940.0,0.3894523326572008
944.0,0.5882352941176471
948.0,0.385395537525355
952.0,0.5801217038539553
956.0,0.38640973630831643
960.0,0.39553752535496955
964.0,0.4066937119675456
968.0,0.4026369168356998
972.0,0.41886409736308317
976.0,0.4290060851926978
980.0,0.45030425963488846
984.0,0.4563894523326572
988.0,0.4716024340770791
992.0,0.4695740365111562
996.0,0.4766734279918864
1000.0,0.48884381338742394
1004.0,0.486815415821501
1008.0,0.4918864097363083
1012.0,0.513184584178499
1016.0,0.4898580121703854
1020.0,0.5030425963488844
1024.0,0.5040567951318459
1028.0,0.5020283975659229
1032.0,0.5030425963488844
1036.0,0.5050709939148073
1040.0,0.4949290060851927
1044.0,0.4969574036511156
1048.0,0.5050709939148073
1052.0,0.4847870182555781
1056.0,0.47565922920892495
1060.0,0.4685598377281947
1064.0,0.45740365111561865
1068.0,0.4513184584178499
1072.0,0.3093306288032454
1076.0,0.3225152129817444
1080.0,0.4026369168356998
1084.0,0.33874239350912777
1088.0,0.34279918864097364
1092.0,0.34989858012170383
1096.0,0.35496957403651114
1100.0,0.36004056795131845
1104.0,0.35496957403651114
1108.0,0.39858012170385393
1112.0,0.345841784989858
1116.0,0.552738336713996
1120.0,0.33367139959432046
1124.0,0.5233265720081136
1128.0,0.3133874239350913
1132.0,0.47971602434077076
1136.0,0.295131845841785
1140.0,0.45740365111561865
1144.0,0.2565922920892495
1148.0,0.4553752535496957
1152.0,0.23225152129817445
1156.0,0.4249492900608519
1160.0,0.2129817444219067
1164.0,0.1997971602434077
1168.0,0.19574036511156187
1172.0,0.18356997971602435
1176.0,0.3488843813387424
1180.0,0.17038539553752535
1184.0,0.16531440162271804
1188.0,0.3752535496957404
1192.0,0.16024340770791076
1196.0,0.16024340770791076
1200.0,0.16531440162271804
1204.0,0.15618661257606492
1208.0,0.3640973630831643
1212.0,0.16531440162271804
1216.0,0.16734279918864098
1220.0,0.1845841784989858
1224.0,0.1795131845841785
1228.0,0.1845841784989858
1232.0,0.20182555780933062
1236.0,0.19878296146044624
1240.0,0.3225152129817444
1244.0,0.2231237322515213
1248.0,0.22413793103448276
1252.0,0.4259634888438134
1256.0,0.24645030425963488
1260.0,0.2535496957403651
1264.0,0.4513184584178499
1268.0,0.268762677484787
1272.0,0.28093306288032455
1276.0,0.49290060851926976
1280.0,0.2920892494929006
1284.0,0.2971602434077079
1288.0,0.30730223123732253
1292.0,0.3052738336713996
1296.0,0.3935091277890467
1300.0,0.3225152129817444
1304.0,0.3133874239350913
1308.0,0.3975659229208925
1312.0,0.31237322515212984
1316.0,0.3103448275862069
1320.0,0.2971602434077079
1324.0,0.29918864097363085
1328.0,0.3924949290060852
1332.0,0.29006085192697767
1336.0,0.2789046653144016
1340.0,0.4411764705882353
1344.0,0.26267748478701824
1348.0,0.43509127789046653
1352.0,0.3772819472616633
1356.0,0.29107505070993916
1360.0,0.30628803245436104
1364.0,0.3184584178498986
1368.0,0.3275862068965517
1372.0,0.33772819472616633
1376.0,0.3448275862068966
1380.0,0.36004056795131845
1384.0,0.36511156186612576
1388.0,0.3752535496957404
1392.0,0.3793103448275862
1396.0,0.3894523326572008
1400.0,0.38843813387423937
1404.0,0.39148073022312374
1408.0,0.3924949290060852
1412.0,0.39148073022312374
1416.0,0.3924949290060852
1420.0,0.39046653144016225
1424.0,0.38742393509127787
1428.0,0.3843813387423935
1432.0,0.37829614604462475
1436.0,0.3772819472616633
1440.0,0.3711967545638945
1444.0,0.3671399594320487
1448.0,0.36004056795131845
1452.0,0.35496957403651114
1456.0,0.34989858012170383
1460.0,0.3448275862068966
1464.0,0.3407707910750507
1468.0,0.33367139959432046
1472.0,0.3306288032454361
1476.0,0.3275862068965517
1480.0,0.3255578093306288
1484.0,0.32150101419878296
1488.0,0.3225152129817444
1492.0,0.3174442190669371
1496.0,0.3184584178498986
1500.0,0.3174442190669371
1504.0,0.32150101419878296
1508.0,0.3225152129817444
1512.0,0.3275862068965517
1516.0,0.3286004056795132
1520.0,0.3306288032454361
1524.0,0.34178498985801214
1528.0,0.3438133874239351
1532.0,0.3509127789046653
1536.0,0.36105476673427994
1540.0,0.3661257606490872
1544.0,0.3762677484787018
1548.0,0.385395537525355
1552.0,0.3935091277890467
1556.0,0.4077079107505071
1560.0,0.4127789046653144
1564.0,0.4249492900608519
1568.0,0.4411764705882353
1572.0,0.45233265720081134
1576.0,0.460446247464503
1580.0,0.4716024340770791
1584.0,0.4898580121703854
1588.0,0.5010141987829615
1592.0,0.5212981744421906
1596.0,0.5314401622718052
1600.0,0.5466531440162272
1604.0,0.5557809330628803
1608.0,0.5699797160243407
1612.0,0.5801217038539553
1616.0,0.59026369168357
1620.0,0.603448275862069
1624.0,0.6146044624746451
1628.0,0.6196754563894523
1632.0,0.6267748478701826
1636.0,0.6348884381338742
1640.0,0.6369168356997972
1644.0,0.6379310344827587
1648.0,0.6419878296146044
1652.0,0.6389452332657201
1656.0,0.6389452332657201
1660.0,0.6359026369168357
1664.0,0.6338742393509128
1668.0,0.6308316430020284
1672.0,0.6206896551724138
1676.0,0.6166328600405679
1680.0,0.6125760649087221
1684.0,0.6054766734279919
1688.0,0.6004056795131846
1692.0,0.592292089249493
1696.0,0.5882352941176471
1700.0,0.5862068965517241
1704.0,0.5811359026369168
1708.0,0.579107505070994
1712.0,0.5730223123732252
1716.0,0.5740365111561866
1720.0,0.5760649087221096
1724.0,0.577079107505071
1728.0,0.5780933062880325
1732.0,0.5841784989858012
1736.0,0.5882352941176471
1740.0,0.592292089249493
1744.0,0.5993914807302231
1748.0,0.6105476673427992
1752.0,0.6196754563894523
1756.0,0.6308316430020284
1760.0,0.6359026369168357
1764.0,0.6490872210953347
1768.0,0.6592292089249493
1772.0,0.6734279918864098
1776.0,0.6845841784989858
1780.0,0.6967545638945233
1784.0,0.8235294117647058
1788.0,0.8681541582150102
1792.0,0.8671399594320487
1796.0,0.8661257606490872
1800.0,0.8661257606490872
1804.0,0.8691683569979716
1808.0,0.8701825557809331
1812.0,0.8762677484787018
1816.0,0.8793103448275862
1820.0,0.8793103448275862
1824.0,0.8894523326572008
1828.0,0.896551724137931
1832.0,0.907707910750507
1836.0,0.9127789046653144
1840.0,0.922920892494929
1844.0,0.9350912778904665
1848.0,0.9462474645030426
1852.0,0.960446247464503
1856.0,0.9695740365111561
1860.0,0.9797160243407708
1864.0,0.9989858012170385
1868.0,0.23123732251521298
1872.0,0.23529411764705882
1876.0,0.603448275862069
1880.0,0.6693711967545639
1884.0,0.6987829614604463
1888.0,0.768762677484787
1892.0,0.7525354969574036
1896.0,0.781947261663286
1900.0,0.8144016227180527
1904.0,0.8336713995943205
1908.0,0.8995943204868154
1912.0,0.9290060851926978
1916.0,0.9614604462474645
1920.0,0.9807302231237323
1924.0,0.12778904665314403
1928.0,0.13793103448275862
1932.0,0.13184584178498987
1936.0,0.7880324543610547
1940.0,0.16024340770791076
1944.0,0.16227180527383367
1948.0,0.1724137931034483
1952.0,0.18052738336713997
1956.0,0.1795131845841785
1960.0,0.20182555780933062
1964.0,0.20385395537525355
1968.0,0.20588235294117646
1972.0,0.22920892494929007
1976.0,0.2302231237322515
1980.0,0.23935091277890466
1984.0,0.23935091277890466
1988.0,0.23935091277890466
1992.0,0.49898580121703856
1996.0,0.25557809330628806
2000.0,0.25760649087221094
2004.0,0.23935091277890466
2008.0,0.5060851926977687
2012.0,0.27079107505070993
2016.0,0.27079107505070993
2020.0,0.5162271805273834
2024.0,0.45740365111561865
2028.0,0.4249492900608519
2032.0,0.59026369168357
2036.0,0.34279918864097364
2040.0,0.31135902636916835
2044.0,0.2829614604462475
2048.0,0.2413793103448276
2052.0,0.2515212981744422
2056.0,0.1845841784989858
2060.0,0.36004056795131845
2064.0,0.1206896551724138
2068.0,0.3052738336713996
2072.0,0.08620689655172414
2076.0,0.08316430020283976
2080.0,0.08620689655172414
2084.0,0.08113590263691683
2088.0,0.13488843813387424
2092.0,0.08316430020283976
2096.0,0.08519269776876268
2100.0,0.09634888438133875
2104.0,0.08519269776876268
2108.0,0.1328600405679513
2112.0,0.0821501014198783
2116.0,0.23529411764705882
2120.0,0.08316430020283976
2124.0,0.08519269776876268
2128.0,0.06795131845841786
2132.0,0.08113590263691683
2136.0,0.2961460446247465
2140.0,0.07910750507099391
2144.0,0.08519269776876268
2148.0,0.08519269776876268
2152.0,0.0821501014198783
2156.0,0.08924949290060852
2160.0,0.08113590263691683
2164.0,0.08519269776876268
2168.0,0.08519269776876268
2172.0,0.0872210953346856
2176.0,0.295131845841785
2180.0,0.08316430020283976
2184.0,0.08417849898580122
2188.0,0.0872210953346856
2192.0,0.0821501014198783
2196.0,0.08417849898580122
2200.0,0.0872210953346856
2204.0,0.08417849898580122
2208.0,0.10040567951318459
2212.0,0.0821501014198783
2216.0,0.295131845841785
2220.0,0.08316430020283976
2224.0,0.08519269776876268
2228.0,0.08519269776876268
2232.0,0.0821501014198783
2236.0,0.295131845841785
2240.0,0.08316430020283976
2244.0,0.08417849898580122
2248.0,0.08417849898580122
2252.0,0.08113590263691683
2256.0,0.08519269776876268
2260.0,0.08316430020283976
2264.0,0.2920892494929006
2268.0,0.08316430020283976
2272.0,0.08316430020283976
2276.0,0.08924949290060852
2280.0,0.0821501014198783
2284.0,0.08316430020283976
2288.0,0.08620689655172414
2292.0,0.08316430020283976
2296.0,0.295131845841785
2300.0,0.08417849898580122
2304.0,0.07910750507099391
2308.0,0.15618661257606492
2312.0,0.08012170385395538
2316.0,0.08519269776876268
2320.0,0.08417849898580122
2324.0,0.0821501014198783
2328.0,0.295131845841785
2332.0,0.08316430020283976
2336.0,0.08417849898580122
2340.0,0.09837728194726167
2344.0,0.08519269776876268
2348.0,0.08417849898580122
2352.0,0.10344827586206896
2356.0,0.0821501014198783
2360.0,0.08113590263691683
2364.0,0.08519269776876268
2368.0,0.0821501014198783
2372.0,0.2920892494929006
2376.0,0.11967545638945233
2380.0,0.08417849898580122
2384.0,0.2789046653144016
2388.0,0.08316430020283976
2392.0,0.08113590263691683
2396.0,0.0821501014198783
2400.0,0.08012170385395538
2404.0,0.08316430020283976
2408.0,0.0821501014198783
2412.0,0.08316430020283976
2416.0,0.08113590263691683
2420.0,0.0821501014198783
2424.0,0.08316430020283976
2428.0,0.08417849898580122
2432.0,0.11663286004056796
2436.0,0.14300202839756593
2440.0,0.1795131845841785
2444.0,0.21703853955375255
2448.0,0.28093306288032455
2452.0,0.3184584178498986
2456.0,0.3630831643002028
2460.0,0.422920892494929
2464.0,0.4898580121703854
2468.0,0.5679513184584178
2472.0,0.6328600405679513
2476.0,0.7058823529411765
2480.0,0.7626774847870182
2484.0,0.8144016227180527
2488.0,0.8691683569979716
2492.0,0.9452332657200812
2496.0,0.9989858012170385
2500.0,0.23123732251521298
2504.0,1.0
2508.0,0.9858012170385395
2512.0,0.9117647058823529
2516.0,0.6795131845841785
2520.0,0.6480730223123732
2524.0,0.6379310344827587
2528.0,0.6196754563894523
2532.0,0.6044624746450304
2536.0,0.5720081135902637
2540.0,0.5557809330628803
2544.0,0.5365111561866126
2548.0,0.5
2552.0,0.47565922920892495
2556.0,0.4695740365111562
2560.0,0.45841784989858014
2564.0,0.45233265720081134
2568.0,0.4432048681541582
2572.0,0.44016227180527384
2576.0,0.43103448275862066
2580.0,0.42697768762677485
2584.0,0.4279918864097363
2588.0,0.4279918864097363
2592.0,0.4279918864097363
2596.0,0.4300202839756592
2600.0,0.4381338742393509
2604.0,0.4421906693711968
2608.0,0.44929006085192696
2612.0,0.45740365111561865
2616.0,0.4685598377281947
2620.0,0.4817444219066937
2624.0,0.4898580121703854
2628.0,0.5010141987829615
2632.0,0.5050709939148073
2636.0,0.5223123732251521
2640.0,0.537525354969574
2644.0,0.5415821501014199
2648.0,0.5537525354969574
2652.0,0.565922920892495
2656.0,0.5720081135902637
2660.0,0.577079107505071
2664.0,0.5872210953346856
2668.0,0.5912778904665315
2672.0,0.5993914807302231
2676.0,0.6054766734279919
2680.0,0.6075050709939148
2684.0,0.6064908722109533
2688.0,0.603448275862069
2692.0,0.6024340770791075
2696.0,0.592292089249493
2700.0,0.5862068965517241
2704.0,0.5760649087221096
2708.0,0.5669371196754563
2712.0,0.552738336713996
2716.0,0.5294117647058824
2720.0,0.5050709939148073
2724.0,0.5
2728.0,0.4918864097363083
2732.0,0.48073022312373226
2736.0,0.4746450304259635
2740.0,0.46754563894523327
2744.0,0.460446247464503
2748.0,0.45740365111561865
2752.0,0.45233265720081134
2756.0,0.45030425963488846
2760.0,0.44523326572008115
2764.0,0.4462474645030426
2768.0,0.44726166328600403
2772.0,0.45030425963488846
2776.0,0.4553752535496957
2780.0,0.45740365111561865
2784.0,0.4645030425963489
2788.0,0.47058823529411764
2792.0,0.4787018255578093
2796.0,0.4898580121703854
2800.0,0.5212981744421906
2804.0,0.5192697768762677
2808.0,0.5294117647058824
2812.0,0.5446247464503042
2816.0,0.5588235294117647
2820.0,0.577079107505071
2824.0,0.5872210953346856
2828.0,0.6014198782961461
2832.0,0.6146044624746451
2836.0,0.7170385395537525
2840.0,0.6551724137931034
2844.0,0.654158215010142
2848.0,0.654158215010142
2852.0,0.6582150101419878
2856.0,0.6622718052738337
2860.0,0.6683569979716024
2864.0,0.6774847870182555
2868.0,0.6845841784989858
2872.0,0.6987829614604463
2876.0,0.7170385395537525
2880.0,0.7261663286004056
2884.0,0.7505070993914807
2888.0,0.781947261663286
2892.0,0.8144016227180527
2896.0,0.8316430020283976
2900.0,0.8580121703853956
2904.0,0.8864097363083164
2908.0,0.9127789046653144
2912.0,0.9442190669371197
2916.0,0.9574036511156186
2920.0,0.9797160243407708
2924.0,0.18356997971602435
2928.0,0.18559837728194725
2932.0,0.1876267748478702
2936.0,0.2738336713995943
2940.0,0.2667342799188641
2944.0,0.2657200811359026
2948.0,0.2657200811359026
2952.0,0.19574036511156187
2956.0,0.1724137931034483
2960.0,0.1724137931034483
2964.0,1.0
2968.0,0.08924949290060852
2972.0,0.11156186612576065
2976.0,0.0922920892494929
2980.0,0.9766734279918864
2984.0,0.8123732251521298
2988.0,0.8113590263691683
2992.0,0.9269776876267748
2996.0,0.0922920892494929
3000.0,0.0922920892494929
3004.0,0.09127789046653144
3008.0,0.16531440162271804
3012.0,0.1663286004056795
3016.0,0.16937119675456389
3020.0,0.20689655172413793
3024.0,0.20588235294117646
3028.0,0.20182555780933062
3032.0,0.22210953346855983
3036.0,0.2434077079107505
3040.0,0.2484787018255578
3044.0,0.39655172413793105
3048.0,0.39655172413793105
3052.0,0.39655172413793105
3056.0,0.9432048681541582
3060.0,0.2079107505070994
3064.0,0.2150101419878296
3068.0,0.4665314401622718
3072.0,0.24036511156186613
3076.0,0.24036511156186613
3080.0,0.6713995943204868
3084.0,0.2697768762677485
3088.0,0.28904665314401623
3092.0,0.27079107505070993
3096.0,0.24543610547667344
3100.0,0.26774847870182555
3104.0,0.2434077079107505
3108.0,0.48073022312373226
3112.0,0.18661257606490872
3116.0,0.20486815415821502
3120.0,0.9401622718052738
3124.0,0.24442190669371197
3128.0,0.2484787018255578
3132.0,0.33468559837728196
3136.0,0.33468559837728196
3140.0,0.268762677484787
3144.0,0.2697768762677485
3148.0,0.13793103448275862
3152.0,0.1389452332657201
3156.0,0.1460446247464503
3160.0,0.1359026369168357
3164.0,0.1328600405679513
3168.0,0.9949290060851927
3172.0,0.9939148073022313
3176.0,1.0
3180.0,1.0
3184.0,0.11359026369168357
3188.0,0.12474645030425964
3192.0,0.12677484787018256
3196.0,0.9411764705882353
3200.0,0.8651115618661258
3204.0,0.8052738336713996
3208.0,0.7363083164300203
3212.0,0.6561866125760649
3216.0,0.6004056795131846
3220.0,0.5294117647058824
3224.0,0.4634888438133874
3228.0,0.39553752535496955
3232.0,0.36004056795131845
3236.0,0.3093306288032454
3240.0,0.2748478701825558
3244.0,0.2434077079107505
3248.0,0.2099391480730223
3252.0,0.19168356997971603
3256.0,0.17545638945233266
3260.0,0.16227180527383367
3264.0,0.16531440162271804
3268.0,0.1795131845841785
3272.0,0.1997971602434077
3276.0,0.2535496957403651
3280.0,0.3255578093306288
3284.0,0.3742393509127789
3288.0,0.46551724137931033
3292.0,0.5456389452332657
3296.0,0.6227180527383367
3300.0,0.7109533468559838
3304.0,0.7890466531440162
3308.0,0.9016227180527383
3312.0,0.9746450304259635
3316.0,0.24036511156186613
3320.0,0.24036511156186613
3324.0,0.25760649087221094
3328.0,0.26774847870182555
3332.0,0.27079107505070993
3336.0,0.9279918864097363
3340.0,0.39655172413793105
3344.0,0.3975659229208925
3348.0,0.3975659229208925
3352.0,0.1663286004056795
3356.0,0.16024340770791076
3360.0,0.15618661257606492
3364.0,0.2515212981744422
3368.0,0.2515212981744422
3372.0,0.2768762677484787
3376.0,0.2799188640973631
3380.0,0.28600405679513186
3384.0,0.2748478701825558
3388.0,0.2778904665314402
3392.0,0.2657200811359026
3396.0,0.26369168356997974
3400.0,0.2748478701825558
3404.0,0.2789046653144016
3408.0,0.28600405679513186
3412.0,0.9614604462474645
3416.0,0.8985801217038539
3420.0,0.781947261663286
3424.0,0.7241379310344828
3428.0,0.6582150101419878
3432.0,0.5679513184584178
3436.0,0.7008113590263692
3440.0,0.43914807302231235
3444.0,0.4056795131845842
3448.0,0.4543610547667343
3452.0,0.37829614604462475
3456.0,0.3813387423935091
3460.0,0.4026369168356998
3464.0,0.41379310344827586
3468.0,0.43711967545638947
3472.0,0.44421906693711966
3476.0,0.4898580121703854
3480.0,0.5212981744421906
3484.0,0.7667342799188641
3488.0,0.5578093306288032
3492.0,0.7789046653144016
3496.0,0.5892494929006086
3500.0,0.8103448275862069
3504.0,0.6105476673427992
3508.0,0.6369168356997972
3512.0,0.6308316430020284
3516.0,0.8498985801217038
3520.0,0.652129817444219
3524.0,0.6947261663286004
3528.0,0.6622718052738337
3532.0,0.7139959432048681
3536.0,0.6815415821501014
3540.0,0.6876267748478702
3544.0,0.7038539553752535
3548.0,0.7880324543610547
3552.0,0.7221095334685599
3556.0,0.7363083164300203
3560.0,0.7494929006085193
3564.0,0.7647058823529411
3568.0,0.781947261663286
3572.0,0.7961460446247465
3576.0,0.8144016227180527
3580.0,0.8417849898580122
3584.0,0.8539553752535497
3588.0,0.8742393509127789
3592.0,0.8995943204868154
3596.0,0.9168356997971603
3600.0,0.9371196754563894
3604.0,0.9675456389452333
3608.0,0.9888438133874239
3612.0,0.23935091277890466
3616.0,0.2413793103448276
3620.0,0.22920892494929007
3624.0,0.2281947261663286
3628.0,0.2383367139959432
3632.0,0.25456389452332656
3636.0,0.2525354969574036
3640.0,0.5851926977687627
3644.0,0.22616632860040567
3648.0,0.22515212981744423
3652.0,0.22413793103448276
3656.0,0.39553752535496955
3660.0,0.39553752535496955
3664.0,0.39553752535496955
3668.0,0.1460446247464503
3672.0,0.13387423935091278
3676.0,0.14198782961460446
3680.0,0.9391480730223124
3684.0,0.90973630831643
3688.0,0.8468559837728195
3692.0,0.6247464503042597
3696.0,0.6572008113590264
3700.0,0.6663286004056795
3704.0,0.6937119675456389
3708.0,0.718052738336714
3712.0,0.731237322515213
3716.0,0.755578093306288
3720.0,0.7890466531440162
3724.0,0.8052738336713996
3728.0,0.8316430020283976
3732.0,0.8681541582150102
3736.0,0.8793103448275862
3740.0,0.9006085192697769
3744.0,0.9543610547667343
3748.0,0.973630831643002
3752.0,0.1997971602434077
3756.0,0.10446247464503043
3760.0,0.10344827586206896
3764.0,0.11967545638945233
3768.0,0.12373225152129817
3772.0,0.1359026369168357
3776.0,0.17038539553752535
3780.0,0.1511156186612576
3784.0,0.15314401622718052
3788.0,0.1643002028397566
3792.0,0.16531440162271804
3796.0,0.19066937119675456
3800.0,0.18052738336713997
3804.0,0.15720081135902636
3808.0,0.15517241379310345
3812.0,0.15212981744421908
3816.0,0.14908722109533468
3820.0,0.17342799188640973
3824.0,0.15618661257606492
3828.0,0.1389452332657201
3832.0,0.140973630831643
3836.0,0.14807302231237324
3840.0,0.16227180527383367
3844.0,0.16227180527383367
3848.0,0.1643002028397566
3852.0,0.2231237322515213
3856.0,0.23225152129817445
3860.0,0.23732251521298176
3864.0,0.3235294117647059
3868.0,0.3275862068965517
3872.0,0.1845841784989858
3876.0,0.1643002028397566
3880.0,0.1511156186612576
3884.0,0.973630831643002
3888.0,0.781947261663286
3892.0,0.5709939148073022
3896.0,0.563894523326572
3900.0,0.5598377281947262
3904.0,0.5557809330628803
3908.0,0.5547667342799188
3912.0,0.552738336713996
3916.0,0.5547667342799188
3920.0,0.5537525354969574
3924.0,0.5547667342799188
3928.0,0.5567951318458418
3932.0,0.563894523326572
3936.0,0.5709939148073022
3940.0,0.5750507099391481
3944.0,0.5872210953346856
3948.0,0.5933062880324543
3952.0,0.6044624746450304
3956.0,0.6196754563894523
3960.0,0.6308316430020284
3964.0,0.6450304259634888
3968.0,0.6612576064908722
3972.0,0.6815415821501014
3976.0,0.6997971602434077
3980.0,0.7241379310344828
3984.0,0.7434077079107505
3988.0,0.7606490872210954
3992.0,0.781947261663286
3996.0,0.8144016227180527
4000.0,0.8316430020283976
4004.0,0.8580121703853956
4008.0,0.8894523326572008
4012.0,0.9107505070993914
4016.0,0.9401622718052738
4020.0,0.9675456389452333
4024.0,0.9949290060851927
4028.0,0.11156186612576065
4032.0,0.11156186612576065
4036.0,0.10446247464503043
4040.0,0.15212981744421908
4044.0,0.140973630831643
4048.0,1.0
4052.0,1.0
4056.0,0.9553752535496958
4060.0,0.9797160243407708
4064.0,0.9634888438133874
4068.0,0.947261663286004
4072.0,0.9239350912778904
4076.0,0.9087221095334685
4080.0,0.8955375253549696
4084.0,0.8722109533468559
4088.0,0.8600405679513184
4092.0,0.845841784989858
4096.0,0.8306288032454361
4100.0,0.821501014198783
4104.0,0.8144016227180527
4108.0,0.8123732251521298
4112.0,0.8052738336713996
4116.0,0.8032454361054767
4120.0,0.8052738336713996
4124.0,0.8123732251521298
4128.0,0.8154158215010142
4132.0,0.8245436105476673
4136.0,0.8367139959432048
4140.0,0.8468559837728195
4144.0,0.8569979716024341
4148.0,0.8793103448275862
4152.0,0.8864097363083164
4156.0,0.8985801217038539
4160.0,0.9188640973630832
4164.0,0.9320486815415822
4168.0,0.9442190669371197
4172.0,0.9655172413793104
4176.0,0.9766734279918864
4180.0,0.9817444219066938
4184.0,0.9858012170385395
4188.0,0.9776876267748479
4192.0,0.960446247464503
4196.0,0.9462474645030426
4200.0,0.9421906693711968
4204.0,0.9249492900608519
4208.0,0.9117647058823529
4212.0,0.9036511156186613
4216.0,0.8924949290060852
4220.0,0.8793103448275862
4224.0,0.8762677484787018
4228.0,0.8651115618661258
4232.0,0.8610547667342799
4236.0,0.8559837728194726
4240.0,0.8549695740365112
4244.0,0.8519269776876268
4248.0,0.8529411764705882
4252.0,0.8630831643002028
4256.0,0.8732251521298174
4260.0,0.8864097363083164
4264.0,0.9066937119675457
4268.0,0.9249492900608519
4272.0,0.9543610547667343
4276.0,0.9827586206896551
4280.0,0.9553752535496958
4284.0,0.8681541582150102
4288.0,0.7515212981744422
4292.0,0.6663286004056795
4296.0,0.7890466531440162
4300.0,0.5
4304.0,0.4553752535496957
4308.0,0.39553752535496955
4312.0,0.3286004056795132
4316.0,0.29411764705882354
4320.0,0.2535496957403651
4324.0,0.21602434077079108
4328.0,0.19675456389452334
4332.0,0.1815415821501014
4336.0,0.16835699797160245
4340.0,0.15618661257606492
4344.0,0.15415821501014199
4348.0,0.15212981744421908
4352.0,0.16024340770791076
4356.0,0.18356997971602435
4360.0,0.1815415821501014
4364.0,0.19574036511156187
4368.0,0.2129817444219067
4372.0,0.23732251521298176
4376.0,0.2606490872210953
4380.0,0.27586206896551724
4384.0,0.30425963488843816
4388.0,0.33772819472616633
4392.0,0.3711967545638945
4396.0,0.4077079107505071
4400.0,0.4239350912778905
4404.0,0.44726166328600403
4408.0,0.4766734279918864
4412.0,0.5283975659229209
4416.0,0.5588235294117647
4420.0,0.5912778904665315
4424.0,0.6135902636916836
4428.0,0.6551724137931034
4432.0,0.6845841784989858
4436.0,0.7079107505070994
4440.0,0.7302231237322515
4444.0,0.7697768762677485
4448.0,0.7890466531440162
4452.0,0.8113590263691683
4456.0,0.8306288032454361
4460.0,0.8509127789046653
4464.0,0.8691683569979716
4468.0,0.8803245436105477
4472.0,0.9127789046653144
4476.0,0.9269776876267748
4480.0,0.9350912778904665
4484.0,0.9442190669371197
4488.0,0.9543610547667343
4492.0,0.9594320486815415
4496.0,0.960446247464503
4500.0,0.960446247464503
4504.0,0.9665314401622718
4508.0,0.9716024340770791
4512.0,0.973630831643002
4516.0,0.9756592292089249
4520.0,0.9756592292089249
4524.0,0.9766734279918864
4528.0,0.9776876267748479
4532.0,0.9787018255578094
4536.0,0.9837728194726166
4540.0,0.9878296146044625
4544.0,0.9918864097363083
4548.0,0.9969574036511156
4552.0,0.15720081135902636
4556.0,0.15212981744421908
4560.0,0.20385395537525355
4564.0,0.20588235294117646
4568.0,0.20892494929006086
4572.0,0.22413793103448276
4576.0,0.15314401622718052
4580.0,0.1511156186612576
4584.0,0.47971602434077076
4588.0,0.16835699797160245
4592.0,0.1663286004056795
4596.0,0.16531440162271804
4600.0,0.1612576064908722
4604.0,0.13995943204868155
4608.0,0.3935091277890467
4612.0,0.3935091277890467
4616.0,0.39046653144016225
4620.0,0.2302231237322515
4624.0,0.20081135902636918
4628.0,0.23225152129817445
4632.0,0.10649087221095335
4636.0,0.295131845841785
4640.0,0.08417849898580122
4644.0,0.08519269776876268
4648.0,0.08924949290060852
4652.0,0.09432048681541583
4656.0,0.0821501014198783
4660.0,0.08316430020283976
4664.0,0.28904665314401623
4668.0,0.08519269776876268
4672.0,0.08316430020283976
4676.0,0.29107505070993916
4680.0,0.0821501014198783
4684.0,0.08519269776876268
4688.0,0.29107505070993916
4692.0,0.10040567951318459
4696.0,0.11663286004056796
4700.0,0.29310344827586204
4704.0,0.6176470588235294
4708.0,0.603448275862069
4712.0,0.7981744421906694
4716.0,0.5933062880324543
4720.0,0.5862068965517241
4724.0,0.7809330628803245
4728.0,0.5709939148073022
4732.0,0.565922920892495
4736.0,0.768762677484787
4740.0,0.5547667342799188
4744.0,0.5486815415821501
4748.0,0.5496957403651116
4752.0,0.5385395537525355
4756.0,0.7322515212981744
4760.0,0.5344827586206896
4764.0,0.5273833671399595
4768.0,0.7352941176470589
4772.0,0.539553752535497
4776.0,0.5324543610547667
4780.0,0.5892494929006086
4784.0,0.5385395537525355
4788.0,0.5436105476673428
4792.0,0.6044624746450304
4796.0,0.5547667342799188
4800.0,0.5588235294117647
4804.0,0.6298174442190669
4808.0,0.5730223123732252
4812.0,0.5821501014198783
4816.0,0.652129817444219
4820.0,0.5993914807302231
4824.0,0.6146044624746451
4828.0,0.6288032454361054
4832.0,0.6338742393509128
4836.0,0.6582150101419878
4840.0,0.8174442190669371
4844.0,0.6896551724137931
4848.0,0.7008113590263692
4852.0,0.9168356997971603
4856.0,0.7210953346855984
4860.0,0.9411764705882353
4864.0,0.7332657200811359
4868.0,0.7281947261663286
4872.0,0.7322515212981744
4876.0,0.7596348884381339
4880.0,0.7261663286004056
4884.0,0.7170385395537525
4888.0,0.7068965517241379
4892.0,0.9117647058823529
4896.0,0.6987829614604463
4900.0,0.7515212981744422
4904.0,0.6572008113590264
4908.0,0.6379310344827587
4912.0,0.6247464503042597
4916.0,0.8154158215010142
4920.0,0.5983772819472617
4924.0,0.5872210953346856
4928.0,0.5598377281947262
4932.0,0.5598377281947262
4936.0,0.7596348884381339
4940.0,0.5436105476673428
4944.0,0.539553752535497
4948.0,0.7383367139959433
4952.0,0.5283975659229209
4956.0,0.5050709939148073
4960.0,0.7261663286004056
4964.0,0.5314401622718052
4968.0,0.5223123732251521
4972.0,0.7150101419878296
4976.0,0.5334685598377282
4980.0,0.5273833671399595
4984.0,0.7342799188640974
4988.0,0.5446247464503042
4992.0,0.539553752535497
4996.0,0.7515212981744422
5000.0,0.5588235294117647
5004.0,0.5669371196754563
5008.0,0.7809330628803245
5012.0,0.5933062880324543
5016.0,0.5963488843813387
5020.0,0.7058823529411765
5024.0,0.6430020283975659
5028.0,0.8367139959432048
5032.0,0.6227180527383367
5036.0,0.6135902636916836
5040.0,0.8164300202839757
5044.0,0.6064908722109533
5048.0,0.5882352941176471
5052.0,0.59026369168357
5056.0,0.5740365111561866
5060.0,0.5841784989858012
5064.0,0.5709939148073022
5068.0,0.565922920892495
5072.0,0.7647058823529411
5076.0,0.5689655172413793
5080.0,0.565922920892495
5084.0,0.783975659229209
5088.0,0.5760649087221096
5092.0,0.783975659229209
5096.0,0.59026369168357
5100.0,0.6004056795131846
5104.0,0.8275862068965517
5108.0,0.6217038539553753
5112.0,0.6328600405679513
5116.0,0.652129817444219
5120.0,0.6551724137931034
5124.0,0.8752535496957403
5128.0,0.6876267748478702
5132.0,0.6967545638945233
5136.0,0.9117647058823529
5140.0,0.7200811359026369
5144.0,0.7383367139959433
5148.0,0.7545638945233266
5152.0,0.7657200811359026
5156.0,0.8651115618661258
5160.0,0.7829614604462475
5164.0,0.7920892494929006
5168.0,0.8012170385395537
5172.0,0.8022312373225152
5176.0,0.8144016227180527
5180.0,0.8073022312373225
5184.0,0.7981744421906694
5188.0,0.7860040567951319
5192.0,0.9006085192697769
5196.0,0.757606490872211
5200.0,0.9462474645030426
5204.0,0.7342799188640974
5208.0,0.718052738336714
5212.0,0.704868154158215
5216.0,0.6866125760649088
5220.0,0.6774847870182555
5224.0,0.6582150101419878
5228.0,0.859026369168357
5232.0,0.6419878296146044
5236.0,0.8397565922920892
5240.0,0.6237322515212982
5244.0,0.757606490872211
5248.0,0.6206896551724138
5252.0,0.8235294117647058
5256.0,0.6277890466531441
5260.0,0.8407707910750507
5264.0,0.6501014198782962
5268.0,0.8681541582150102
5272.0,0.678498985801217
5276.0,0.691683569979716
5280.0,0.7139959432048681
5284.0,0.7373225152129818
5288.0,0.7505070993914807
5292.0,0.7809330628803245
5296.0,0.7941176470588235
5300.0,0.8265720081135902
5304.0,0.8468559837728195
5308.0,0.8681541582150102
5312.0,0.8894523326572008
5316.0,0.9087221095334685
5320.0,0.9239350912778904
5324.0,0.9442190669371197
5328.0,0.9594320486815415
5332.0,0.9665314401622718
5336.0,0.9787018255578094
5340.0,0.9929006085192698
5344.0,1.0
5348.0,0.9766734279918864
5352.0,0.17139959432048682
5356.0,0.16835699797160245
5360.0,0.1876267748478702
5364.0,0.16227180527383367
5368.0,0.1643002028397566
5372.0,0.15720081135902636
5376.0,0.15618661257606492
5380.0,0.19574036511156187
5384.0,0.19776876267748478
5388.0,0.1997971602434077
5392.0,0.20081135902636918
5396.0,0.10040567951318459
5400.0,0.1876267748478702
5404.0,0.18661257606490872
5408.0,0.22210953346855983
5412.0,0.22210953346855983
5416.0,0.20081135902636918
5420.0,0.20182555780933062
5424.0,0.20081135902636918
5428.0,0.20081135902636918
5432.0,0.24543610547667344
5436.0,0.9432048681541582
5440.0,0.8559837728194726
5444.0,0.8174442190669371
5448.0,0.7657200811359026
5452.0,0.7170385395537525
5456.0,0.6845841784989858
5460.0,0.6511156186612576
5464.0,0.6176470588235294
5468.0,0.592292089249493
5472.0,0.5709939148073022
5476.0,0.5567951318458418
5480.0,0.5496957403651116
5484.0,0.5385395537525355
5488.0,0.537525354969574
5492.0,0.5365111561866126
5496.0,0.5385395537525355
5500.0,0.5496957403651116
5504.0,0.5588235294117647
5508.0,0.5699797160243407
5512.0,0.5821501014198783
5516.0,0.6024340770791075
5520.0,0.6196754563894523
5524.0,0.6328600405679513
5528.0,0.6490872210953347
5532.0,0.6592292089249493
5536.0,0.6795131845841785
5540.0,0.691683569979716
5544.0,0.7058823529411765
5548.0,0.7231237322515213
5552.0,0.7363083164300203
5556.0,0.7494929006085193
5560.0,0.7626774847870182
5564.0,0.7768762677484787
5568.0,0.783975659229209
5572.0,0.8022312373225152
5576.0,0.8133874239350912
5580.0,0.821501014198783
5584.0,0.8255578093306288
5588.0,0.8356997971602435
5592.0,0.8468559837728195
5596.0,0.8498985801217038
5600.0,0.8580121703853956
5604.0,0.8722109533468559
5608.0,0.8793103448275862
5612.0,0.8843813387423936
5616.0,0.8945233265720081
5620.0,0.8985801217038539
5624.0,0.9087221095334685
5628.0,0.9148073022312373
5632.0,0.9269776876267748
5636.0,0.9371196754563894
5640.0,0.9533468559837728
5644.0,0.9614604462474645
5648.0,0.9807302231237323
5652.0,0.9989858012170385
5656.0,0.10040567951318459
5660.0,0.140973630831643
5664.0,0.15720081135902636
5668.0,0.13488843813387424
5672.0,0.13387423935091278
5676.0,0.15720081135902636
5680.0,0.1643002028397566
5684.0,0.1440162271805274
5688.0,0.15720081135902636
5692.0,0.20892494929006086
5696.0,0.21095334685598377
5700.0,0.21602434077079108
5704.0,0.22008113590263692
5708.0,0.2413793103448276
5712.0,0.2434077079107505
5716.0,0.24442190669371197
5720.0,0.2210953346855984
5724.0,0.2210953346855984
5728.0,0.23935091277890466
5732.0,0.2383367139959432
5736.0,0.21703853955375255
5740.0,0.21805273833671399
5744.0,0.19574036511156187
5748.0,0.19675456389452334
5752.0,0.22515212981744423
5756.0,0.22515212981744423
5760.0,0.39655172413793105
5764.0,0.9888438133874239
5768.0,0.9533468559837728
5772.0,0.9269776876267748
5776.0,0.9026369168356998
5780.0,0.8884381338742393
5784.0,0.8722109533468559
5788.0,0.8610547667342799
5792.0,0.8488843813387424
5796.0,0.845841784989858
5800.0,0.8326572008113591
5804.0,0.8306288032454361
5808.0,0.8275862068965517
5812.0,0.8235294117647058
5816.0,0.8255578093306288
5820.0,0.8255578093306288
5824.0,0.8286004056795132
5828.0,0.8316430020283976
5832.0,0.8397565922920892
5836.0,0.8468559837728195
5840.0,0.8519269776876268
5844.0,0.8681541582150102
5848.0,0.8793103448275862
5852.0,0.8955375253549696
5856.0,0.9107505070993914
5860.0,0.9300202839756593
5864.0,0.9462474645030426
5868.0,0.9705882352941176
5872.0,0.9979716024340771
5876.0,0.18559837728194725
5880.0,0.1876267748478702
5884.0,0.20689655172413793
5888.0,0.20689655172413793
5892.0,0.2332657200811359
5896.0,0.25456389452332656
5900.0,0.2525354969574036
5904.0,0.2515212981744422
5908.0,0.19878296146044624
5912.0,0.20081135902636918
5916.0,0.22616632860040567
5920.0,0.2281947261663286
5924.0,0.2302231237322515
5928.0,0.23123732251521298
5932.0,0.2383367139959432
5936.0,0.21906693711967545
5940.0,0.21703853955375255
5944.0,0.22920892494929007
5948.0,0.2281947261663286
5952.0,0.2210953346855984
5956.0,0.22210953346855983
5960.0,0.39046653144016225
5964.0,0.21805273833671399
5968.0,0.21602434077079108
5972.0,0.2150101419878296
5976.0,0.2332657200811359
5980.0,0.2363083164300203
5984.0,0.21602434077079108
5988.0,0.21703853955375255
5992.0,0.21906693711967545
5996.0,0.22210953346855983
6000.0,0.22210953346855983
6004.0,0.19776876267748478
6008.0,0.1997971602434077
6012.0,0.20081135902636918
6016.0,0.20081135902636918
6020.0,0.1947261663286004
6024.0,0.19776876267748478
6028.0,0.19878296146044624
6032.0,0.18255578093306288
6036.0,0.3935091277890467
6040.0,0.3935091277890467
6044.0,0.25557809330628806
6048.0,0.9026369168356998
6052.0,0.8955375253549696
6056.0,0.8914807302231237
6060.0,0.8864097363083164
6064.0,0.8793103448275862
6068.0,0.8448275862068966
6072.0,0.10040567951318459
6076.0,0.10446247464503043
6080.0,0.13488843813387424
6084.0,0.13387423935091278
6088.0,0.4158215010141988
6092.0,0.19574036511156187
6096.0,0.19574036511156187
6100.0,0.21196754563894524
6104.0,0.2332657200811359
6108.0,0.23123732251521298
6112.0,0.23529411764705882
6116.0,0.23427991886409735
6120.0,0.21703853955375255
6124.0,0.21399594320486814
6128.0,0.19776876267748478
6132.0,0.20892494929006086
6136.0,0.17342799188640973
6140.0,0.17342799188640973
6144.0,0.18559837728194725
6148.0,0.1896551724137931
6152.0,0.1926977687626775
6156.0,0.20689655172413793
6160.0,0.21196754563894524
6164.0,0.21399594320486814
6168.0,0.21196754563894524
6172.0,0.2099391480730223
6176.0,0.21399594320486814
6180.0,0.2150101419878296
6184.0,0.20689655172413793
6188.0,0.2079107505070994
6192.0,0.20892494929006086
6196.0,0.1896551724137931
6200.0,0.18864097363083165
6204.0,0.22413793103448276
6208.0,0.20182555780933062
6212.0,0.1744421906693712
6216.0,0.1926977687626775
6220.0,0.8823529411764706
6224.0,0.15618661257606492
6228.0,0.1744421906693712
6232.0,0.15212981744421908
6236.0,0.15618661257606492
6240.0,0.15821501014198783
6244.0,0.14705882352941177
6248.0,0.13691683569979715
6252.0,0.13995943204868155
6256.0,0.14198782961460446
6260.0,0.1440162271805274
6264.0,0.12880324543610547
6268.0,0.12778904665314403
6272.0,0.12778904665314403
6276.0,0.15821501014198783
6280.0,0.15821501014198783
6284.0,0.1612576064908722
6288.0,0.16227180527383367
6292.0,0.15212981744421908
6296.0,0.15517241379310345
6300.0,0.7403651115618661
6304.0,0.14908722109533468
6308.0,0.14705882352941177
6312.0,0.1440162271805274
6316.0,0.30831643002028397
6320.0,0.3255578093306288
6324.0,0.3711967545638945
6328.0,0.3640973630831643
6332.0,0.3509127789046653
6336.0,0.08924949290060852
6340.0,0.29006085192697767
6344.0,0.16835699797160245
6348.0,0.15821501014198783
6352.0,0.29817444219066935
6356.0,0.295131845841785
6360.0,0.2799188640973631
6364.0,0.27281947261663286
6368.0,0.2718052738336714
6372.0,0.2697768762677485
6376.0,0.26774847870182555
6380.0,0.2697768762677485
6384.0,0.27281947261663286
6388.0,0.27586206896551724
6392.0,0.38843813387423937
6396.0,0.6673427991886409
6400.0,0.6683569979716024
6404.0,0.6693711967545639
6408.0,0.6693711967545639
6412.0,0.6713995943204868
6416.0,0.678498985801217
6420.0,0.6744421906693712
6424.0,0.6795131845841785
6428.0,0.6845841784989858
6432.0,0.6866125760649088
6436.0,0.6957403651115619
6440.0,0.6997971602434077
6444.0,0.7058823529411765
6448.0,0.7170385395537525
6452.0,0.7322515212981744
6456.0,0.7363083164300203
6460.0,0.7434077079107505
6464.0,0.9330628803245437
6468.0,0.7657200811359026
6472.0,0.7758620689655172
6476.0,0.9797160243407708
6480.0,0.7971602434077079
6484.0,0.8113590263691683
6488.0,0.8417849898580122
6492.0,0.8539553752535497
6496.0,0.8762677484787018
6500.0,0.9117647058823529
6504.0,0.9117647058823529
6508.0,0.9442190669371197
6512.0,0.9594320486815415
6516.0,0.973630831643002
6520.0,0.9797160243407708
6524.0,0.9959432048681541
6528.0,0.9908722109533469
6532.0,0.9989858012170385
6536.0,0.9979716024340771
6540.0,0.9918864097363083
6544.0,0.9908722109533469
6548.0,0.9766734279918864
6552.0,0.9726166328600405
6556.0,0.960446247464503
6560.0,0.9452332657200812
6564.0,0.9117647058823529
6568.0,0.8894523326572008
6572.0,0.9310344827586207
6576.0,0.8336713995943205
6580.0,0.8154158215010142
6584.0,0.781947261663286
6588.0,0.7809330628803245
6592.0,0.7626774847870182
6596.0,0.7494929006085193
6600.0,0.7363083164300203
6604.0,0.7251521298174443
6608.0,0.7221095334685599
6612.0,0.716024340770791
6616.0,0.9219066937119675
6620.0,0.7139959432048681
6624.0,0.716024340770791
6628.0,0.7231237322515213
6632.0,0.718052738336714
6636.0,0.8549695740365112
6640.0,0.7393509127789046
6644.0,0.7586206896551724
6648.0,0.795131845841785
6652.0,0.7281947261663286
6656.0,0.7363083164300203
6660.0,0.7474645030425964
6664.0,0.7494929006085193
6668.0,0.8468559837728195
6672.0,0.768762677484787
6676.0,0.9016227180527383
6680.0,0.7961460446247465
6684.0,0.8032454361054767
6688.0,0.8144016227180527
6692.0,0.8275862068965517
6696.0,0.8417849898580122
6700.0,0.8569979716024341
6704.0,0.8620689655172413
6708.0,0.8853955375253549
6712.0,0.8955375253549696
6716.0,0.9066937119675457
6720.0,0.9107505070993914
6724.0,0.9178498985801217
6728.0,0.9137931034482759
6732.0,0.9148073022312373
6736.0,0.9117647058823529
6740.0,0.9117647058823529
6744.0,0.9006085192697769
6748.0,0.8864097363083164
6752.0,0.8793103448275862
6756.0,0.8732251521298174
6760.0,0.8529411764705882
6764.0,0.9939148073022313
6768.0,0.8367139959432048
6772.0,0.8194726166328601
6776.0,0.8113590263691683
6780.0,0.7931034482758621
6784.0,0.8539553752535497
6788.0,0.7748478701825557
6792.0,0.7647058823529411
6796.0,0.755578093306288
6800.0,0.7464503042596349
6804.0,0.742393509127789
6808.0,0.7373225152129818
6812.0,0.7241379310344828
6816.0,0.8793103448275862
6820.0,0.718052738336714
6824.0,0.7190669371196755
6828.0,0.7261663286004056
6832.0,0.718052738336714
6836.0,0.9330628803245437
6840.0,0.72920892494929
6844.0,0.7322515212981744
6848.0,0.7494929006085193
6852.0,0.960446247464503
6856.0,0.7718052738336714
6860.0,0.9107505070993914
6864.0,0.7829614604462475
6868.0,0.8103448275862069
6872.0,0.8255578093306288
6876.0,0.8397565922920892
6880.0,0.8569979716024341
6884.0,0.8884381338742393
6888.0,0.9117647058823529
6892.0,0.9137931034482759
6896.0,0.922920892494929
6900.0,0.8955375253549696
6904.0,0.8144016227180527
6908.0,0.7768762677484787
6912.0,0.781947261663286
6916.0,0.808316430020284
6920.0,0.7991886409736308
6924.0,0.8133874239350912
6928.0,0.8275862068965517
6932.0,0.8316430020283976
6936.0,0.845841784989858
6940.0,0.8661257606490872
6944.0,0.8732251521298174
6948.0,0.8864097363083164
6952.0,0.9006085192697769
6956.0,0.9107505070993914
6960.0,0.922920892494929
6964.0,0.9432048681541582
6968.0,0.9452332657200812
6972.0,0.9594320486815415
6976.0,0.9756592292089249
6980.0,0.9766734279918864
6984.0,0.986815415821501
6988.0,0.9989858012170385
6992.0,0.9959432048681541
6996.0,0.9898580121703854
7000.0,0.9756592292089249
7004.0,0.9634888438133874
7008.0,0.9442190669371197
7012.0,0.9188640973630832
7016.0,0.9066937119675457
7020.0,0.8985801217038539
7024.0,0.8803245436105477
7028.0,0.847870182555781
7032.0,0.8326572008113591
7036.0,0.8255578093306288
7040.0,0.8194726166328601
7044.0,0.8123732251521298
7048.0,0.795131845841785
7052.0,0.8042596348884381
7056.0,0.8052738336713996
7060.0,0.8144016227180527
7064.0,0.8235294117647058
7068.0,0.8286004056795132
7072.0,0.8326572008113591
7076.0,0.847870182555781
7080.0,0.8762677484787018
7084.0,0.8904665314401623
7088.0,0.9087221095334685
7092.0,0.9290060851926978
7096.0,0.9503042596348884
7100.0,0.9908722109533469
7104.0,0.9959432048681541
7108.0,0.0973630831643002
7112.0,0.07302231237322515
7116.0,0.9127789046653144
7120.0,0.8610547667342799
7124.0,0.8012170385395537
7128.0,0.7241379310344828
7132.0,0.6622718052738337
7136.0,0.5872210953346856
7140.0,0.5385395537525355
7144.0,0.4847870182555781
7148.0,0.4411764705882353
7152.0,0.3924949290060852
7156.0,0.35598377281947263
7160.0,0.3275862068965517
7164.0,0.29107505070993916
7168.0,0.2657200811359026
7172.0,0.24746450304259635
7176.0,0.22210953346855983
7180.0,0.2079107505070994
7184.0,0.19878296146044624
7188.0,0.20081135902636918
7192.0,0.21196754563894524
7196.0,0.23427991886409735
7200.0,0.2434077079107505
7204.0,0.2697768762677485
7208.0,0.29817444219066935
7212.0,0.31643002028397565
7216.0,0.33772819472616633
7220.0,0.36004056795131845
7224.0,0.3924949290060852
7228.0,0.4290060851926978
7232.0,0.45334685598377283
7236.0,0.48073022312373226
7240.0,0.5050709939148073
7244.0,0.5456389452332657
7248.0,0.5679513184584178
7252.0,0.5892494929006086
7256.0,0.6247464503042597
7260.0,0.6470588235294118
7264.0,0.6744421906693712
7268.0,0.6845841784989858
7272.0,0.7008113590263692
7276.0,0.7221095334685599
7280.0,0.8144016227180527
7284.0,0.9330628803245437
7288.0,0.949290060851927
7292.0,0.9655172413793104
7296.0,0.9766734279918864
7300.0,0.9878296146044625
7304.0,0.19878296146044624
7308.0,0.20182555780933062
7312.0,0.20385395537525355
7316.0,0.2231237322515213
7320.0,0.17139959432048682
7324.0,0.17342799188640973
7328.0,0.16024340770791076
7332.0,0.16024340770791076
7336.0,0.21805273833671399
7340.0,0.2150101419878296
7344.0,0.21703853955375255
7348.0,0.1997971602434077
7352.0,0.19878296146044624
7356.0,0.19776876267748478
7360.0,0.23225152129817445
7364.0,0.2332657200811359
7368.0,0.23427991886409735
7372.0,0.23427991886409735
7376.0,0.21602434077079108
7380.0,0.2150101419878296
7384.0,0.20182555780933062
7388.0,0.1926977687626775
7392.0,0.18356997971602435
7396.0,0.20689655172413793
7400.0,0.17849898580121704
7404.0,0.12373225152129817
7408.0,0.11866125760649088
7412.0,0.11866125760649088
7416.0,0.1643002028397566
7420.0,0.32454361054766734
7424.0,0.3133874239350913
7428.0,0.9391480730223124
7432.0,0.8833671399594321
7436.0,0.9959432048681541
7440.0,0.7515212981744422
7444.0,0.6724137931034483
7448.0,0.6359026369168357
7452.0,0.5750507099391481
7456.0,0.5050709939148073
7460.0,0.422920892494929
7464.0,0.3752535496957404
7468.0,0.32150101419878296
7472.0,0.25963488843813387
7476.0,0.23732251521298176
7480.0,0.19878296146044624
7484.0,0.1663286004056795
7488.0,0.10953346855983773
7492.0,0.08519269776876268
7496.0,0.07809330628803246
7500.0,0.08113590263691683
7504.0,0.04563894523326572
7508.0,0.08113590263691683
7512.0,0.0821501014198783
7516.0,0.0872210953346856
7520.0,0.08113590263691683
7524.0,0.0821501014198783
7528.0,0.08316430020283976
7532.0,0.08113590263691683
7536.0,0.08113590263691683
7540.0,0.08316430020283976
7544.0,0.09837728194726167
7548.0,0.24746450304259635
7552.0,0.3002028397565923
7556.0,0.3275862068965517
7560.0,0.35699797160243407
7564.0,0.38235294117647056
7568.0,0.4077079107505071
7572.0,0.44016227180527384
7576.0,0.46754563894523327
7580.0,0.4908722109533469
7584.0,0.5243407707910751
7588.0,0.5436105476673428
7592.0,0.5608519269776876
7596.0,0.5750507099391481
7600.0,0.5841784989858012
7604.0,0.5973630831643002
7608.0,0.6064908722109533
7612.0,0.6105476673427992
7616.0,0.6105476673427992
7620.0,0.6075050709939148
7624.0,0.6044624746450304
7628.0,0.6004056795131846
7632.0,0.5963488843813387
7636.0,0.5872210953346856
7640.0,0.5841784989858012
7644.0,0.5801217038539553
7648.0,0.577079107505071
7652.0,0.5760649087221096
7656.0,0.5801217038539553
7660.0,0.5821501014198783
7664.0,0.5862068965517241
7668.0,0.5872210953346856
7672.0,0.5943204868154158
7676.0,0.6085192697768763
7680.0,0.603448275862069
7684.0,0.6227180527383367
7688.0,0.6348884381338742
7692.0,0.6480730223123732
7696.0,0.6592292089249493
7700.0,0.6734279918864098
7704.0,0.6947261663286004
7708.0,0.7109533468559838
7712.0,0.7322515212981744
7716.0,0.7494929006085193
7720.0,0.7728194726166329
7724.0,0.7900608519269777
7728.0,0.8123732251521298
7732.0,0.8296146044624746
7736.0,0.8448275862068966
7740.0,0.8732251521298174
7744.0,0.8782961460446247
7748.0,0.8843813387423936
7752.0,0.8985801217038539
7756.0,0.9117647058823529
7760.0,0.9117647058823529
7764.0,0.9188640973630832
7768.0,0.922920892494929
7772.0,0.9249492900608519
7776.0,0.922920892494929
7780.0,0.9219066937119675
7784.0,0.9168356997971603
7788.0,0.9148073022312373
7792.0,0.9117647058823529
7796.0,0.9087221095334685
7800.0,0.9016227180527383
7804.0,0.8864097363083164
7808.0,0.8864097363083164
7812.0,0.8813387423935092
7816.0,0.8782961460446247
7820.0,0.8732251521298174
7824.0,0.8701825557809331
7828.0,0.8630831643002028
7832.0,0.8640973630831643
7836.0,0.8640973630831643
7840.0,0.8640973630831643
7844.0,0.8762677484787018
7848.0,0.8874239350912779
7852.0,0.15010141987829614
7856.0,0.15010141987829614
7860.0,0.5699797160243407
7864.0,0.20385395537525355
7868.0,0.20182555780933062
7872.0,0.22008113590263692
7876.0,0.2332657200811359
7880.0,0.2363083164300203
7884.0,0.2363083164300203
7888.0,0.4411764705882353
7892.0,0.20486815415821502
7896.0,0.20588235294117646
7900.0,0.23225152129817445
7904.0,0.2332657200811359
7908.0,0.21399594320486814
7912.0,0.21196754563894524
7916.0,0.21703853955375255
7920.0,0.21399594320486814
7924.0,0.2231237322515213
7928.0,0.2281947261663286
7932.0,0.22718052738336714
7936.0,0.20892494929006086
7940.0,0.2079107505070994
7944.0,0.22718052738336714
7948.0,0.22413793103448276
7952.0,0.19776876267748478
7956.0,0.2028397565922921
7960.0,0.18255578093306288
7964.0,0.18356997971602435
7968.0,0.0010141987829614604
7972.0,0.0821501014198783
7976.0,0.08012170385395538
7980.0,0.0821501014198783
7984.0,0.0821501014198783
7988.0,0.08113590263691683
7992.0,0.08113590263691683
7996.0,0.0821501014198783
8000.0,0.06795131845841786
8004.0,0.0821501014198783
8008.0,0.07910750507099391
8012.0,0.08316430020283976
8016.0,0.08316430020283976
8020.0,0.08316430020283976
8024.0,0.08316430020283976
8028.0,0.0821501014198783
8032.0,0.0821501014198783
8036.0,0.08113590263691683
8040.0,0.08620689655172414
8044.0,0.10040567951318459
8048.0,0.11359026369168357
8052.0,0.12981744421906694
8056.0,0.14908722109533468
8060.0,0.16531440162271804
8064.0,0.18356997971602435
8068.0,0.20486815415821502
8072.0,0.2363083164300203
8076.0,0.2657200811359026
8080.0,0.29006085192697767
8084.0,0.3144016227180527
8088.0,0.359026369168357
8092.0,0.43610547667342797
8096.0,0.45740365111561865
8100.0,0.4787018255578093
8104.0,0.5040567951318459
8108.0,0.5486815415821501
8112.0,0.5872210953346856
8116.0,0.6004056795131846
8120.0,0.6156186612576064
8124.0,0.6308316430020284
8128.0,0.6470588235294118
8132.0,0.6551724137931034
8136.0,0.6683569979716024
8140.0,0.6713995943204868
8144.0,0.6815415821501014
8148.0,0.6845841784989858
8152.0,0.6876267748478702
8156.0,0.6906693711967545
8160.0,0.6906693711967545
8164.0,0.6947261663286004
8168.0,0.691683569979716
8172.0,0.6977687626774848
8176.0,0.6947261663286004
8180.0,0.6937119675456389
8184.0,0.6947261663286004
8188.0,0.6937119675456389
8192.0,0.6947261663286004
8196.0,0.6937119675456389
8200.0,0.6957403651115619
8204.0,0.6987829614604463
8208.0,0.7008113590263692
8212.0,0.7018255578093306
8216.0,0.7058823529411765
8220.0,0.7150101419878296
8224.0,0.7190669371196755
8228.0,0.7302231237322515
8232.0,0.7413793103448276
8236.0,0.744421906693712
8240.0,0.7494929006085193
8244.0,0.755578093306288
8248.0,0.7657200811359026
8252.0,0.7758620689655172
8256.0,0.7870182555780934
8260.0,0.808316430020284
8264.0,0.8133874239350912
8268.0,0.8275862068965517
8272.0,0.8377281947261663
8276.0,0.8438133874239351
8280.0,0.8569979716024341
8284.0,0.8772819472616633
8288.0,0.8864097363083164
8292.0,0.9056795131845842
8296.0,0.9117647058823529
8300.0,0.9188640973630832
8304.0,0.9462474645030426
8308.0,0.9614604462474645
8312.0,0.9705882352941176
8316.0,0.9776876267748479
8320.0,0.9898580121703854
8324.0,0.9959432048681541
8328.0,0.20486815415821502
8332.0,0.2099391480730223
8336.0,0.1643002028397566
8340.0,0.1795131845841785
8344.0,0.17139959432048682
8348.0,0.1896551724137931
8352.0,0.1896551724137931
8356.0,0.1896551724137931
8360.0,0.2079107505070994
8364.0,0.20892494929006086
8368.0,0.21095334685598377
8372.0,0.22413793103448276
8376.0,0.22515212981744423
8380.0,0.22920892494929007
8384.0,0.22920892494929007
8388.0,0.2079107505070994
8392.0,0.2079107505070994
8396.0,0.15517241379310345
8400.0,0.17545638945233266
8404.0,0.15720081135902636
8408.0,0.16937119675456389
8412.0,0.17038539553752535
8416.0,0.18661257606490872
8420.0,0.18661257606490872
8424.0,0.18661257606490872
8428.0,0.2099391480730223
8432.0,0.2099391480730223
8436.0,0.20892494929006086
8440.0,0.19776876267748478
8444.0,0.21196754563894524
8448.0,0.2150101419878296
8452.0,0.8468559837728195
8456.0,0.783975659229209
8460.0,0.7474645030425964
8464.0,0.6906693711967545
8468.0,0.6643002028397565
8472.0,0.6196754563894523
8476.0,0.5882352941176471
8480.0,0.5709939148073022
8484.0,0.5415821501014199
8488.0,0.5050709939148073
8492.0,0.49290060851926976
8496.0,0.4898580121703854
8500.0,0.4645030425963489
8504.0,0.45233265720081134
8508.0,0.4421906693711968
8512.0,0.4340770791075051
8516.0,0.4300202839756592
8520.0,0.42697768762677485
8524.0,0.4249492900608519
8528.0,0.4249492900608519
8532.0,0.4259634888438134
8536.0,0.43204868154158216
8540.0,0.4340770791075051
8544.0,0.44016227180527384
8548.0,0.4432048681541582
8552.0,0.4513184584178499
8556.0,0.45740365111561865
8560.0,0.460446247464503
8564.0,0.4695740365111562
8568.0,0.4787018255578093
8572.0,0.48884381338742394
8576.0,0.4908722109533469
8580.0,0.5
8584.0,0.5050709939148073
8588.0,0.5223123732251521
8592.0,0.5253549695740365
8596.0,0.5334685598377282
8600.0,0.5425963488843814
8604.0,0.5476673427991886
8608.0,0.5547667342799188
8612.0,0.5588235294117647
8616.0,0.5679513184584178
8620.0,0.577079107505071
8624.0,0.5801217038539553
8628.0,0.5872210953346856
8632.0,0.6004056795131846
8636.0,0.6085192697768763
8640.0,0.6196754563894523
8644.0,0.6298174442190669
8648.0,0.6389452332657201
8652.0,0.652129817444219
8656.0,0.6632860040567952
8660.0,0.6845841784989858
8664.0,0.6896551724137931
8668.0,0.7058823529411765
8672.0,0.7170385395537525
8676.0,0.7342799188640974
8680.0,0.7494929006085193
8684.0,0.7677484787018256
8688.0,0.7829614604462475
8692.0,0.8042596348884381
8696.0,0.8154158215010142
8700.0,0.8387423935091278
8704.0,0.859026369168357
8708.0,0.8732251521298174
8712.0,0.8935091277890467
8716.0,0.9148073022312373
8720.0,0.9330628803245437
8724.0,0.9503042596348884
8728.0,0.9716024340770791
8732.0,0.9939148073022313
8736.0,0.2099391480730223
8740.0,0.2129817444219067
8744.0,0.20892494929006086
8748.0,0.18661257606490872
8752.0,0.18559837728194725
8756.0,0.21805273833671399
8760.0,0.22008113590263692
8764.0,0.20892494929006086
8768.0,0.21703853955375255
8772.0,0.21805273833671399
8776.0,0.22008113590263692
8780.0,0.2129817444219067
8784.0,0.21399594320486814
8788.0,0.2150101419878296
8792.0,0.1997971602434077
8796.0,0.19675456389452334
8800.0,0.1845841784989858
8804.0,0.18661257606490872
8808.0,0.20081135902636918
8812.0,0.20182555780933062
8816.0,0.2028397565922921
8820.0,0.21196754563894524
8824.0,0.2099391480730223
8828.0,0.9442190669371197
8832.0,0.8377281947261663
8836.0,0.7454361054766734
8840.0,0.6754563894523327
8844.0,0.6196754563894523
8848.0,0.5720081135902637
8852.0,0.5294117647058824
8856.0,0.4908722109533469
8860.0,0.473630831643002
8864.0,0.45841784989858014
8868.0,0.45740365111561865
8872.0,0.4563894523326572
8876.0,0.6196754563894523
8880.0,0.9330628803245437
8884.0,0.9462474645030426
8888.0,0.960446247464503
8892.0,0.973630831643002
8896.0,0.9858012170385395
8900.0,1.0
8904.0,0.22616632860040567
8908.0,0.18356997971602435
8912.0,0.18356997971602435
8916.0,0.1815415821501014
8920.0,0.18356997971602435
8924.0,0.17342799188640973
8928.0,0.1724137931034483
8932.0,0.17139959432048682
8936.0,0.8052738336713996
8940.0,0.16734279918864098
8944.0,0.1663286004056795
8948.0,0.16835699797160245
8952.0,0.17849898580121704
8956.0,0.1724137931034483
8960.0,0.1511156186612576
8964.0,0.1328600405679513
8968.0,0.13387423935091278
8972.0,0.13995943204868155
8976.0,0.1389452332657201
8980.0,1.0
8984.0,0.9188640973630832
8988.0,0.8681541582150102
8992.0,0.8174442190669371
8996.0,0.7515212981744422
9000.0,0.7018255578093306
9004.0,0.652129817444219
9008.0,0.6014198782961461
9012.0,0.5608519269776876
9016.0,0.5223123732251521
9020.0,0.4918864097363083
9024.0,0.460446247464503
9028.0,0.4381338742393509
9032.0,0.41886409736308317
9036.0,0.39553752535496955
9040.0,0.3793103448275862
9044.0,0.3691683569979716
9048.0,0.359026369168357
9052.0,0.35496957403651114
9056.0,0.35496957403651114
9060.0,0.3580121703853955
9064.0,0.3630831643002028
9068.0,0.3539553752535497
9072.0,0.5283975659229209
9076.0,0.22413793103448276
9080.0,0.2231237322515213
9084.0,0.9817444219066938
9088.0,0.9655172413793104
9092.0,0.9462474645030426
9096.0,0.9310344827586207
9100.0,0.922920892494929
9104.0,0.9148073022312373
9108.0,0.9117647058823529
9112.0,0.19776876267748478
9116.0,0.20081135902636918
9120.0,0.20182555780933062
9124.0,0.17139959432048682
9128.0,0.14198782961460446
9132.0,0.15720081135902636
9136.0,0.10344827586206896
9140.0,0.09939148073022312
9144.0,0.9766734279918864
9148.0,0.9756592292089249
9152.0,0.0922920892494929
9156.0,0.09026369168356999
9160.0,0.036511156186612576
9164.0,0.12271805273833672
9168.0,0.12170385395537525
9172.0,0.9026369168356998
9176.0,0.8975659229208925
9180.0,0.90973630831643
9184.0,0.9178498985801217
9188.0,0.9350912778904665
9192.0,0.9827586206896551
9196.0,0.9979716024340771
9200.0,0.10547667342799188
9204.0,0.10446247464503043
9208.0,0.9929006085192698
9212.0,0.9766734279918864
9216.0,0.9685598377281948
9220.0,0.9594320486815415
9224.0,0.9533468559837728
9228.0,0.9442190669371197
9232.0,0.9421906693711968
9236.0,0.9381338742393509
9240.0,0.9421906693711968
9244.0,0.9432048681541582
9248.0,0.9442190669371197
9252.0,0.9482758620689655
9256.0,0.9756592292089249
9260.0,0.9827586206896551
9264.0,0.2099391480730223
9268.0,0.20892494929006086
9272.0,0.20689655172413793
9276.0,0.17647058823529413
9280.0,0.3945233265720081
9284.0,0.3945233265720081
9288.0,0.39553752535496955
9292.0,0.08924949290060852
9296.0,0.9634888438133874
9300.0,0.9219066937119675
9304.0,0.8833671399594321
9308.0,0.8438133874239351
9312.0,0.7900608519269777
9316.0,0.7464503042596349
9320.0,0.7241379310344828
9324.0,0.7170385395537525
9328.0,0.7119675456389453
9332.0,0.691683569979716
9336.0,0.6845841784989858
9340.0,0.6855983772819473
9344.0,0.6886409736308317
9348.0,0.6896551724137931
9352.0,0.7241379310344828
9356.0,0.704868154158215
9360.0,0.7139959432048681
9364.0,0.7170385395537525
9368.0,0.7221095334685599
9372.0,0.7352941176470589
9376.0,0.7545638945233266
9380.0,0.7586206896551724
9384.0,0.7636916835699797
9388.0,0.7647058823529411
9392.0,0.768762677484787
9396.0,0.7728194726166329
9400.0,0.7809330628803245
9404.0,0.7829614604462475
9408.0,0.7849898580121704
9412.0,0.7880324543610547
9416.0,0.7880324543610547
9420.0,0.7931034482758621
9424.0,0.7941176470588235
9428.0,0.7961460446247465
9432.0,0.7971602434077079
9436.0,0.7961460446247465
9440.0,0.8052738336713996
9444.0,0.8144016227180527
9448.0,0.8194726166328601
9452.0,0.17038539553752535
9456.0,0.16937119675456389
9460.0,0.2150101419878296
9464.0,0.21703853955375255
9468.0,0.21805273833671399
9472.0,0.19371196754563894
9476.0,0.19574036511156187
9480.0,0.19168356997971603
9484.0,0.19168356997971603
9488.0,0.2150101419878296
9492.0,0.21602434077079108
9496.0,0.21805273833671399
9500.0,0.22008113590263692
9504.0,0.1612576064908722
9508.0,0.18255578093306288
9512.0,0.9290060851926978
9516.0,0.8843813387423936
9520.0,0.8144016227180527
9524.0,0.7606490872210954
9528.0,0.704868154158215
9532.0,0.6470588235294118
9536.0,0.6014198782961461
9540.0,0.5547667342799188
9544.0,0.5030425963488844
9548.0,0.46247464503042596
9552.0,0.42190669371196754
9556.0,0.3924949290060852
9560.0,0.36105476673427994
9564.0,0.33468559837728196
9568.0,0.3184584178498986
9572.0,0.3022312373225152
9576.0,0.2920892494929006
9580.0,0.28093306288032455
9584.0,0.2718052738336714
9588.0,0.2657200811359026
9592.0,0.24036511156186613
9596.0,0.27586206896551724
9600.0,0.28600405679513186
9604.0,0.29817444219066935
9608.0,0.30730223123732253
9612.0,0.3265720081135903
9616.0,0.3448275862068966
9620.0,0.3661257606490872
9624.0,0.3762677484787018
9628.0,0.40973630831643004
9632.0,0.4279918864097363
9636.0,0.4553752535496957
9640.0,0.4746450304259635
9644.0,0.5233265720081136
9648.0,0.5517241379310345
9652.0,0.5608519269776876
9656.0,0.8681541582150102
9660.0,0.11764705882352941
9664.0,0.12373225152129817
9668.0,0.18661257606490872
9672.0,0.19574036511156187
9676.0,0.20385395537525355
9680.0,0.1926977687626775
9684.0,0.1926977687626775
9688.0,0.2281947261663286
9692.0,0.22616632860040567
9696.0,0.19878296146044624
9700.0,0.22210953346855983
9704.0,0.23935091277890466
9708.0,0.24036511156186613
9712.0,0.24036511156186613
9716.0,0.20081135902636918
9720.0,0.20081135902636918
9724.0,0.21196754563894524
9728.0,0.21196754563894524
9732.0,0.24543610547667344
9736.0,0.24949290060851928
9740.0,0.6379310344827587
9744.0,0.23935091277890466
9748.0,0.2150101419878296
9752.0,0.2129817444219067
9756.0,0.2129817444219067
9760.0,0.22616632860040567
9764.0,0.20588235294117646
9768.0,0.22210953346855983
9772.0,0.19878296146044624
9776.0,0.19574036511156187
9780.0,0.19878296146044624
9784.0,0.20182555780933062
9788.0,0.1997971602434077
9792.0,0.1795131845841785
9796.0,0.18052738336713997
9800.0,0.20689655172413793
9804.0,0.2079107505070994
9808.0,0.1815415821501014
9812.0,0.22718052738336714
9816.0,0.22515212981744423
9820.0,0.22210953346855983
9824.0,0.39655172413793105
9828.0,0.39655172413793105
9832.0,0.6359026369168357
9836.0,0.6359026369168357
9840.0,0.6196754563894523
9844.0,0.6156186612576064
9848.0,0.6105476673427992
9852.0,0.6105476673427992
9856.0,0.6125760649087221
9860.0,0.6196754563894523
9864.0,0.6206896551724138
9868.0,0.6359026369168357
9872.0,0.6460446247464503
9876.0,0.652129817444219
9880.0,0.6724137931034483
9884.0,0.6947261663286004
9888.0,0.7332657200811359
9892.0,0.7515212981744422
9896.0,0.7768762677484787
9900.0,0.7971602434077079
9904.0,0.821501014198783
9908.0,0.8468559837728195
9912.0,0.8793103448275862
9916.0,0.8955375253549696
9920.0,0.9188640973630832
9924.0,0.9371196754563894
9928.0,0.9766734279918864
9932.0,0.1389452332657201
9936.0,0.15010141987829614
9940.0,0.2079107505070994
9944.0,0.20689655172413793
9948.0,0.22718052738336714
9952.0,0.2281947261663286
9956.0,0.40466531440162273
9960.0,0.22008113590263692
9964.0,0.21906693711967545
9968.0,0.2231237322515213
9972.0,0.22210953346855983
9976.0,0.21805273833671399
9980.0,0.17545638945233266
9984.0,0.1845841784989858
9988.0,0.18661257606490872
9992.0,0.009127789046653144
9996.0,0.1876267748478702
10000.0,0.18864097363083165
10004.0,0.2079107505070994
10008.0,0.20486815415821502
10012.0,0.20385395537525355
10016.0,0.19776876267748478
10020.0,0.18052738336713997
10024.0,0.4817444219066937
10028.0,0.1257606490872211
10032.0,0.1308316430020284
10036.0,0.9817444219066938
10040.0,0.8793103448275862
10044.0,0.7870182555780934
10048.0,0.7058823529411765
10052.0,0.6054766734279919
10056.0,0.5405679513184585
10060.0,0.4716024340770791
10064.0,0.3813387423935091
10068.0,0.3275862068965517
10072.0,0.08012170385395538
10076.0,0.37322515212981744
10080.0,0.4178498985801217
10084.0,0.4421906693711968
10088.0,0.4634888438133874
10092.0,0.4969574036511156
10096.0,0.5223123732251521
10100.0,0.5466531440162272
10104.0,0.5801217038539553
10108.0,0.5882352941176471
10112.0,0.6135902636916836
10116.0,0.6227180527383367
10120.0,0.6369168356997972
10124.0,0.652129817444219
10128.0,0.6572008113590264
10132.0,0.6622718052738337
10136.0,0.6734279918864098
10140.0,0.6825557809330629
10144.0,0.6845841784989858
10148.0,0.6896551724137931
10152.0,0.6957403651115619
10156.0,0.7018255578093306
10160.0,0.7038539553752535
10164.0,0.7079107505070994
10168.0,0.7170385395537525
10172.0,0.7170385395537525
10176.0,0.7241379310344828
10180.0,0.7322515212981744
10184.0,0.7383367139959433
10188.0,0.7494929006085193
10192.0,0.7545638945233266
10196.0,0.7657200811359026
10200.0,0.77079107505071
10204.0,0.783975659229209
10208.0,0.7931034482758621
10212.0,0.8042596348884381
10216.0,0.8204868154158215
10220.0,0.8336713995943205
10224.0,0.845841784989858
10228.0,0.8580121703853956
10232.0,0.8732251521298174
10236.0,0.8924949290060852
10240.0,0.9127789046653144
10244.0,0.9350912778904665
10248.0,0.9503042596348884
10252.0,0.9675456389452333
10256.0,0.9837728194726166
10260.0,0.9979716024340771
10264.0,0.9989858012170385
10268.0,0.9949290060851927
10272.0,0.11764705882352941
10276.0,0.11663286004056796
10280.0,0.16227180527383367
10284.0,0.140973630831643
10288.0,0.12677484787018256
10292.0,0.9350912778904665
10296.0,0.8509127789046653
10300.0,0.8052738336713996
10304.0,0.7505070993914807
10308.0,0.7139959432048681
10312.0,0.6764705882352942
10316.0,0.6450304259634888
10320.0,0.5963488843813387
10324.0,0.563894523326572
10328.0,0.5354969574036511
10332.0,0.5030425963488844
10336.0,0.4898580121703854
10340.0,0.46754563894523327
10344.0,0.45233265720081134
10348.0,0.43204868154158216
10352.0,0.4077079107505071
10356.0,0.3924949290060852
10360.0,0.3671399594320487
10364.0,0.35496957403651114
10368.0,0.3438133874239351
10372.0,0.33772819472616633
10376.0,0.332657200811359
10380.0,0.460446247464503
10384.0,0.20182555780933062
10388.0,0.20588235294117646
10392.0,0.2210953346855984
10396.0,0.23123732251521298
10400.0,0.4634888438133874
10404.0,0.46247464503042596
10408.0,0.45740365111561865
10412.0,0.4482758620689655
10416.0,0.44016227180527384
10420.0,0.4279918864097363
10424.0,0.4127789046653144
10428.0,0.4066937119675456
10432.0,0.3924949290060852
10436.0,0.3813387423935091
10440.0,0.36004056795131845
10444.0,0.34685598377281945
10448.0,0.3306288032454361
10452.0,0.3174442190669371
10456.0,0.29817444219066935
10460.0,0.2697768762677485
10464.0,0.26774847870182555
10468.0,0.2525354969574036
10472.0,0.23732251521298176
10476.0,0.2281947261663286
10480.0,0.21095334685598377
10484.0,0.20081135902636918
10488.0,0.19168356997971603
10492.0,0.1815415821501014
10496.0,0.17545638945233266
10500.0,0.16734279918864098
10504.0,0.16328600405679514
10508.0,0.1592292089249493
10512.0,0.15618661257606492
10516.0,0.15618661257606492
10520.0,0.15720081135902636
10524.0,0.15517241379310345
10528.0,0.1612576064908722
10532.0,0.16531440162271804
10536.0,0.16835699797160245
10540.0,0.1744421906693712
10544.0,0.1815415821501014
10548.0,0.1926977687626775
10552.0,0.20182555780933062
10556.0,0.2129817444219067
10560.0,0.22413793103448276
10564.0,0.23225152129817445
10568.0,0.24442190669371197
10572.0,0.2535496957403651
10576.0,0.2657200811359026
10580.0,0.2778904665314402
10584.0,0.29006085192697767
10588.0,0.295131845841785
10592.0,0.3052738336713996
10596.0,0.3133874239350913
10600.0,0.3174442190669371
10604.0,0.32454361054766734
10608.0,0.3275862068965517
10612.0,0.3275862068965517
10616.0,0.3265720081135903
10620.0,0.3174442190669371
10624.0,0.30425963488843816
10628.0,0.28498985801217036
10632.0,0.26267748478701824
10636.0,0.23935091277890466
10640.0,0.21602434077079108
10644.0,0.19574036511156187
10648.0,0.17647058823529413
10652.0,0.14908722109533468
10656.0,0.1328600405679513
10660.0,0.11257606490872211
10664.0,0.09634888438133875
10668.0,0.08417849898580122
10672.0,0.08417849898580122
10676.0,0.08316430020283976
10680.0,0.0821501014198783
10684.0,0.08316430020283976
10688.0,0.0821501014198783
10692.0,0.08316430020283976
10696.0,0.0821501014198783
10700.0,0.0821501014198783
10704.0,0.08316430020283976
10708.0,0.08316430020283976
10712.0,0.08417849898580122
10716.0,0.08417849898580122
10720.0,0.08113590263691683
10724.0,0.08316430020283976
10728.0,0.0821501014198783
10732.0,0.08113590263691683
10736.0,0.08012170385395538
10740.0,0.0821501014198783
10744.0,0.0821501014198783
10748.0,0.08316430020283976
10752.0,0.0821501014198783
10756.0,0.08316430020283976
10760.0,0.08316430020283976
10764.0,0.08113590263691683
10768.0,0.06490872210953347
10772.0,0.08316430020283976
10776.0,0.08113590263691683
10780.0,0.0821501014198783
10784.0,0.0821501014198783
10788.0,0.08316430020283976
10792.0,0.08316430020283976
10796.0,0.08316430020283976
10800.0,0.08012170385395538
10804.0,0.0821501014198783
10808.0,0.0821501014198783
10812.0,0.08316430020283976
10816.0,0.08316430020283976
10820.0,0.08113590263691683
10824.0,0.0821501014198783
10828.0,0.08113590263691683
10832.0,0.0821501014198783
10836.0,0.08316430020283976
10840.0,0.0821501014198783
10844.0,0.08316430020283976
10848.0,0.0821501014198783
10852.0,0.08113590263691683
10856.0,0.08316430020283976
10860.0,0.0821501014198783
10864.0,0.08113590263691683
10868.0,0.08316430020283976
10872.0,0.08316430020283976
10876.0,0.08113590263691683
10880.0,0.0821501014198783
10884.0,0.0821501014198783
10888.0,0.0821501014198783
10892.0,0.08316430020283976
10896.0,0.08316430020283976
10900.0,0.0821501014198783
10904.0,0.0821501014198783
10908.0,0.10040567951318459
10912.0,0.0821501014198783
10916.0,0.08316430020283976
10920.0,0.08012170385395538
10924.0,0.08316430020283976
10928.0,0.08113590263691683
10932.0,0.07910750507099391
10936.0,0.08113590263691683
10940.0,0.08316430020283976
10944.0,0.08316430020283976
10948.0,0.08316430020283976
10952.0,0.08113590263691683
10956.0,0.08113590263691683
10960.0,0.08316430020283976
10964.0,0.08316430020283976
10968.0,0.08113590263691683
10972.0,0.08316430020283976
10976.0,0.08316430020283976
10980.0,0.0821501014198783
10984.0,0.08113590263691683
10988.0,0.0821501014198783
10992.0,0.16734279918864098
10996.0,0.16531440162271804
11000.0,0.16227180527383367
11004.0,0.15415821501014199
11008.0,0.14807302231237324
11012.0,0.13995943204868155
11016.0,0.13387423935091278
11020.0,0.13184584178498987
11024.0,0.12170385395537525
11028.0,0.11359026369168357
11032.0,0.11156186612576065
11036.0,0.10649087221095335
11040.0,0.10040567951318459
11044.0,0.0973630831643002
11048.0,0.09432048681541583
11052.0,0.08924949290060852
11056.0,0.08417849898580122
11060.0,0.08519269776876268
11064.0,0.08417849898580122
11068.0,0.08417849898580122
11072.0,0.08417849898580122
11076.0,0.08316430020283976
11080.0,0.08316430020283976
11084.0,0.0872210953346856
11088.0,0.09634888438133875
11092.0,0.12170385395537525
11096.0,0.12981744421906694
11100.0,0.13691683569979715
11104.0,0.14908722109533468
11108.0,0.16024340770791076
11112.0,0.17849898580121704
11116.0,0.19776876267748478
11120.0,0.2231237322515213
11124.0,0.24746450304259635
11128.0,0.26774847870182555
11132.0,0.2920892494929006
11136.0,0.30831643002028397
11140.0,0.3184584178498986
11144.0,0.3286004056795132
11148.0,0.33468559837728196
11152.0,0.33874239350912777
11156.0,0.33772819472616633
11160.0,0.3316430020283976
11164.0,0.3275862068965517
11168.0,0.3174442190669371
11172.0,0.31135902636916835
11176.0,0.29918864097363085
11180.0,0.28904665314401623
11184.0,0.2697768762677485
11188.0,0.2606490872210953
11192.0,0.24746450304259635
11196.0,0.2363083164300203
11200.0,0.22718052738336714
11204.0,0.21399594320486814
11208.0,0.20182555780933062
11212.0,0.19675456389452334
11216.0,0.1876267748478702
11220.0,0.18255578093306288
11224.0,0.1795131845841785
11228.0,0.17647058823529413
11232.0,0.17647058823529413
11236.0,0.17748478701825557
11240.0,0.1815415821501014
11244.0,0.19066937119675456
11248.0,0.19878296146044624
11252.0,0.2150101419878296
11256.0,0.2302231237322515
11260.0,0.24645030425963488
11264.0,0.26774847870182555
11268.0,0.28904665314401623
11272.0,0.30628803245436104
11276.0,0.3265720081135903
11280.0,0.35294117647058826
11284.0,0.3742393509127789
11288.0,0.3924949290060852
11292.0,0.4026369168356998
11296.0,0.4513184584178499
11300.0,0.31135902636916835
11304.0,0.32150101419878296
11308.0,0.32454361054766734
11312.0,0.32961460446247465
11316.0,0.3407707910750507
11320.0,0.3488843813387424
11324.0,0.36004056795131845
11328.0,0.3711967545638945
11332.0,0.38235294117647056
11336.0,0.3935091277890467
11340.0,0.4056795131845842
11344.0,0.4208924949290061
11348.0,0.4381338742393509
11352.0,0.45740365111561865
11356.0,0.4665314401622718
11360.0,0.48073022312373226
11364.0,0.49797160243407707
11368.0,0.513184584178499
11372.0,0.5294117647058824
11376.0,0.5496957403651116
11380.0,0.5567951318458418
11384.0,0.565922920892495
11388.0,0.577079107505071
11392.0,0.5872210953346856
11396.0,0.5983772819472617
11400.0,0.6054766734279919
11404.0,0.6105476673427992
11408.0,0.6156186612576064
11412.0,0.6186612576064908
11416.0,0.6186612576064908
11420.0,0.6196754563894523
11424.0,0.6186612576064908
11428.0,0.6125760649087221
11432.0,0.6085192697768763
11436.0,0.6004056795131846
11440.0,0.59026369168357
11444.0,0.5882352941176471
11448.0,0.5801217038539553
11452.0,0.5699797160243407
11456.0,0.5608519269776876
11460.0,0.5537525354969574
11464.0,0.539553752535497
11468.0,0.5334685598377282
11472.0,0.5223123732251521
11476.0,0.5020283975659229
11480.0,0.4908722109533469
11484.0,0.4847870182555781
11488.0,0.4665314401622718
11492.0,0.4665314401622718
11496.0,0.45740365111561865
11500.0,0.4543610547667343
11504.0,0.45233265720081134
11508.0,0.4432048681541582
11512.0,0.4411764705882353
11516.0,0.4421906693711968
11520.0,0.4411764705882353
11524.0,0.4381338742393509
11528.0,0.43914807302231235
11532.0,0.43610547667342797
11536.0,0.43610547667342797
11540.0,0.44016227180527384
11544.0,0.4411764705882353
11548.0,0.4421906693711968
11552.0,0.4432048681541582
11556.0,0.45233265720081134
11560.0,0.45740365111561865
11564.0,0.45841784989858014
11568.0,0.4716024340770791
11572.0,0.47565922920892495
11576.0,0.48580121703853957
11580.0,0.4918864097363083
11584.0,0.5010141987829615
11588.0,0.5182555780933062
11592.0,0.5223123732251521
11596.0,0.5344827586206896
11600.0,0.5415821501014199
11604.0,0.552738336713996
11608.0,0.5567951318458418
11612.0,0.565922920892495
11616.0,0.5720081135902637
11620.0,0.5780933062880325
11624.0,0.5851926977687627
11628.0,0.5872210953346856
11632.0,0.592292089249493
11636.0,0.5963488843813387
11640.0,0.6014198782961461
11644.0,0.6004056795131846
11648.0,0.6044624746450304
11652.0,0.6054766734279919
11656.0,0.6085192697768763
11660.0,0.6105476673427992
11664.0,0.6095334685598377
11668.0,0.6166328600405679
11672.0,0.6176470588235294
11676.0,0.6196754563894523
11680.0,0.6206896551724138
11684.0,0.6288032454361054
11688.0,0.6369168356997972
11692.0,0.6389452332657201
11696.0,0.6551724137931034
11700.0,0.6703853955375254
11704.0,0.6815415821501014
11708.0,0.6957403651115619
11712.0,0.7210953346855984
11716.0,0.7363083164300203
11720.0,0.7616632860040567
11724.0,0.7860040567951319
11728.0,0.8468559837728195
11732.0,0.8813387423935092
11736.0,0.9665314401622718
11740.0,0.9979716024340771
11744.0,0.9107505070993914
11748.0,0.7251521298174443
11752.0,0.5334685598377282
11756.0,0.3762677484787018
11760.0,0.26369168356997974
11764.0,0.15618661257606492
11768.0,0.0821501014198783
11772.0,0.2748478701825558
11776.0,0.6206896551724138
11780.0,0.8580121703853956
11784.0,0.6663286004056795
11788.0,0.8468559837728195
11792.0,0.7139959432048681
11796.0,0.8296146044624746
11800.0,0.7505070993914807
11804.0,0.8742393509127789
11808.0,0.781947261663286
11812.0,0.7931034482758621
11816.0,0.8022312373225152
11820.0,0.8093306288032455
11824.0,0.8123732251521298
11828.0,0.8113590263691683
11832.0,0.821501014198783
11836.0,0.8012170385395537
11840.0,0.9807302231237323
11844.0,0.7931034482758621
11848.0,0.781947261663286
11852.0,0.7799188640973631
11856.0,0.7606490872210954
11860.0,0.9279918864097363
11864.0,0.7322515212981744
11868.0,0.7890466531440162
11872.0,0.7038539553752535
11876.0,0.8316430020283976
11880.0,0.6825557809330629
11884.0,0.7008113590263692
11888.0,0.6592292089249493
11892.0,0.6511156186612576
11896.0,0.6470588235294118
11900.0,0.6348884381338742
11904.0,0.678498985801217
11908.0,0.6257606490872211
11912.0,0.7018255578093306
11916.0,0.6257606490872211
11920.0,0.6308316430020284
11924.0,0.6369168356997972
11928.0,0.6369168356997972
11932.0,0.8488843813387424
11936.0,0.6531440162271805
11940.0,0.6612576064908722
11944.0,0.6845841784989858
11948.0,0.691683569979716
11952.0,0.8448275862068966
11956.0,0.718052738336714
11960.0,0.7302231237322515
11964.0,0.9391480730223124
11968.0,0.7626774847870182
11972.0,0.7809330628803245
11976.0,0.8133874239350912
11980.0,0.8184584178498986
11984.0,0.8397565922920892
11988.0,0.8468559837728195
11992.0,0.8580121703853956
11996.0,0.8772819472616633
12000.0,0.8793103448275862
12004.0,0.9837728194726166
12008.0,0.896551724137931
12012.0,0.9006085192697769
12016.0,0.9117647058823529
12020.0,0.9107505070993914
12024.0,0.9117647058823529
12028.0,0.9117647058823529
12032.0,0.9066937119675457
12036.0,0.9026369168356998
12040.0,0.8904665314401623
12044.0,0.8853955375253549
12048.0,0.9148073022312373
12052.0,0.7758620689655172
12056.0,0.8012170385395537
12060.0,0.8144016227180527
12064.0,0.8286004056795132
12068.0,0.8448275862068966
12072.0,0.8630831643002028
12076.0,0.8732251521298174
12080.0,0.8853955375253549
12084.0,0.8955375253549696
12088.0,0.90973630831643
12092.0,0.922920892494929
12096.0,0.9381338742393509
12100.0,0.9442190669371197
12104.0,0.9553752535496958
12108.0,0.962474645030426
12112.0,0.9756592292089249
12116.0,0.9787018255578094
12120.0,0.9817444219066938
12124.0,0.9898580121703854
12128.0,0.9918864097363083
12132.0,0.9939148073022313
12136.0,0.9918864097363083
12140.0,0.9908722109533469
12144.0,0.9878296146044625
12148.0,0.9858012170385395
12152.0,0.9787018255578094
12156.0,0.9776876267748479
12160.0,0.973630831643002
12164.0,0.9959432048681541
12168.0,0.9594320486815415
12172.0,0.9553752535496958
12176.0,0.9452332657200812
12180.0,0.9411764705882353
12184.0,0.9330628803245437
12188.0,0.9249492900608519
12192.0,0.9188640973630832
12196.0,0.9117647058823529
12200.0,0.90973630831643
12204.0,0.9006085192697769
12208.0,0.8924949290060852
12212.0,0.8853955375253549
12216.0,0.8823529411764706
12220.0,0.8793103448275862
12224.0,0.8793103448275862
12228.0,0.8782961460446247
12232.0,0.8782961460446247
12236.0,0.8762677484787018
12240.0,0.8782961460446247
12244.0,0.8793103448275862
12248.0,0.8782961460446247
12252.0,0.8782961460446247
12256.0,0.8793103448275862
12260.0,0.8823529411764706
12264.0,0.8864097363083164
12268.0,0.8924949290060852
12272.0,0.8955375253549696
12276.0,0.8985801217038539
12280.0,0.9066937119675457
12284.0,0.9178498985801217
12288.0,0.9269776876267748
12292.0,0.9401622718052738
12296.0,0.9705882352941176
12300.0,0.09432048681541583
12304.0,0.12373225152129817
12308.0,0.12880324543610547
12312.0,0.5283975659229209
12316.0,0.19371196754563894
12320.0,0.1947261663286004
12324.0,0.18356997971602435
12328.0,0.18356997971602435
12332.0,0.22616632860040567
12336.0,0.22718052738336714
12340.0,0.22718052738336714
12344.0,0.22210953346855983
12348.0,0.20892494929006086
12352.0,0.20892494929006086
12356.0,0.20689655172413793
12360.0,0.20081135902636918
12364.0,0.20081135902636918
12368.0,0.07707910750507099
12372.0,0.17748478701825557
12376.0,0.1744421906693712
12380.0,0.8377281947261663
12384.0,0.1724137931034483
12388.0,0.1612576064908722
12392.0,0.16531440162271804
12396.0,0.18356997971602435
12400.0,0.1815415821501014
12404.0,0.1795131845841785
12408.0,0.17748478701825557
12412.0,0.1592292089249493
12416.0,0.1612576064908722
12420.0,0.1896551724137931
12424.0,0.18661257606490872
12428.0,0.9066937119675457
12432.0,0.21196754563894524
12436.0,0.22920892494929007
12440.0,0.20588235294117646
12444.0,0.19878296146044624
12448.0,0.19878296146044624
12452.0,0.2484787018255578
12456.0,0.24746450304259635
12460.0,0.21703853955375255
12464.0,0.2150101419878296
12468.0,0.21805273833671399
12472.0,0.2363083164300203
12476.0,0.21095334685598377
12480.0,0.38742393509127787
12484.0,0.39553752535496955
12488.0,0.38742393509127787
12492.0,0.40162271805273836
12496.0,0.3711967545638945
12500.0,0.6348884381338742
12504.0,0.8296146044624746
12508.0,0.13691683569979715
12512.0,0.12778904665314403
12516.0,0.12778904665314403
12520.0,0.19168356997971603
12524.0,0.19574036511156187
12528.0,0.20081135902636918
12532.0,0.20892494929006086
12536.0,0.2079107505070994
12540.0,0.2616632860040568
12544.0,0.26369168356997974
12548.0,0.30425963488843816
12552.0,0.35699797160243407
12556.0,0.31947261663286003
12560.0,0.3154158215010142
12564.0,0.2829614604462475
12568.0,0.25557809330628806
12572.0,0.25456389452332656
12576.0,0.2484787018255578
12580.0,0.24949290060851928
12584.0,0.21399594320486814
12588.0,0.21196754563894524
12592.0,0.2099391480730223
12596.0,0.2150101419878296
12600.0,0.21196754563894524
12604.0,0.2099391480730223
12608.0,0.20689655172413793
12612.0,0.20385395537525355
12616.0,0.24036511156186613
12620.0,0.22008113590263692
12624.0,0.9655172413793104
12628.0,0.8367139959432048
12632.0,0.9553752535496958
12636.0,0.7150101419878296
12640.0,0.652129817444219
12644.0,0.7768762677484787
12648.0,0.592292089249493
12652.0,0.6146044624746451
12656.0,0.6227180527383367
12660.0,0.6389452332657201
12664.0,0.6490872210953347
12668.0,0.6673427991886409
12672.0,0.6845841784989858
12676.0,0.6977687626774848
12680.0,0.704868154158215
12684.0,0.7139959432048681
12688.0,0.7383367139959433
12692.0,0.7535496957403651
12696.0,0.7809330628803245
12700.0,0.7981744421906694
12704.0,0.8103448275862069
12708.0,0.8164300202839757
12712.0,0.8255578093306288
12716.0,0.8326572008113591
12720.0,0.8488843813387424
12724.0,0.8580121703853956
12728.0,0.8681541582150102
12732.0,0.8843813387423936
12736.0,0.9016227180527383
12740.0,0.9137931034482759
12744.0,0.9219066937119675
12748.0,0.9442190669371197
12752.0,0.12474645030425964
12756.0,0.12373225152129817
12760.0,0.14198782961460446
12764.0,0.1460446247464503
12768.0,0.15314401622718052
12772.0,0.15821501014198783
12776.0,0.20182555780933062
12780.0,0.19878296146044624
12784.0,0.2150101419878296
12788.0,0.21805273833671399
12792.0,0.2210953346855984
12796.0,0.3204868154158215
12800.0,0.20689655172413793
12804.0,0.20486815415821502
12808.0,0.20385395537525355
12812.0,0.18052738336713997
12816.0,0.1815415821501014
12820.0,0.16835699797160245
12824.0,0.16835699797160245
12828.0,0.16734279918864098
12832.0,0.1511156186612576
12836.0,0.15212981744421908
12840.0,0.15212981744421908
12844.0,0.16937119675456389
12848.0,0.17545638945233266
12852.0,0.17748478701825557
12856.0,0.1795131845841785
12860.0,0.18559837728194725
12864.0,0.20182555780933062
12868.0,0.2028397565922921
12872.0,0.20081135902636918
12876.0,0.19675456389452334
12880.0,0.22008113590263692
12884.0,0.2210953346855984
12888.0,0.22210953346855983
12892.0,0.20588235294117646
12896.0,0.20588235294117646
12900.0,0.20486815415821502
12904.0,0.21703853955375255
12908.0,0.2281947261663286
12912.0,0.4665314401622718
12916.0,0.21196754563894524
12920.0,0.22718052738336714
12924.0,0.22008113590263692
12928.0,0.8803245436105477
12932.0,0.8580121703853956
12936.0,0.8468559837728195
12940.0,0.8427991886409736
12944.0,0.8397565922920892
12948.0,0.8407707910750507
12952.0,0.8397565922920892
12956.0,0.8569979716024341
12960.0,0.8671399594320487
12964.0,0.8823529411764706
12968.0,0.9056795131845842
12972.0,0.9219066937119675
12976.0,0.9391480730223124
12980.0,0.9584178498985801
12984.0,0.9807302231237323
12988.0,0.9979716024340771
12992.0,0.21805273833671399
12996.0,0.21602434077079108
13000.0,0.2129817444219067
13004.0,0.9766734279918864
13008.0,0.9391480730223124
13012.0,0.90973630831643
13016.0,0.8772819472616633
13020.0,0.8144016227180527
13024.0,0.9929006085192698
13028.0,0.7768762677484787
13032.0,0.7494929006085193
13036.0,0.744421906693712
13040.0,0.7170385395537525
13044.0,0.9117647058823529
13048.0,0.6845841784989858
13052.0,0.678498985801217
13056.0,0.6693711967545639
13060.0,0.6531440162271805
13064.0,0.847870182555781
13068.0,0.6430020283975659
13072.0,0.6450304259634888
13076.0,0.640973630831643
13080.0,0.6582150101419878
13084.0,0.652129817444219
13088.0,0.845841784989858
13092.0,0.6632860040567952
13096.0,0.6693711967545639
13100.0,0.6815415821501014
13104.0,0.6774847870182555
13108.0,0.7038539553752535
13112.0,0.6815415821501014
13116.0,0.8093306288032455
13120.0,0.6845841784989858
13124.0,0.6754563894523327
13128.0,0.8793103448275862
13132.0,0.6693711967545639
13136.0,0.6612576064908722
13140.0,0.8255578093306288
13144.0,0.6490872210953347
13148.0,0.6379310344827587
13152.0,0.7971602434077079
13156.0,0.6206896551724138
13160.0,0.6024340770791075
13164.0,0.7920892494929006
13168.0,0.5588235294117647
13172.0,0.5517241379310345
13176.0,0.5547667342799188
13180.0,0.5192697768762677
13184.0,0.3539553752535497
13188.0,0.28093306288032455
13192.0,0.3052738336713996
13196.0,0.295131845841785
13200.0,0.30425963488843816
13204.0,0.3144016227180527
13208.0,0.31643002028397565
13212.0,0.3975659229208925
13216.0,0.3275862068965517
13220.0,0.3275862068965517
13224.0,0.5415821501014199
13228.0,0.3286004056795132
13232.0,0.4908722109533469
13236.0,0.3275862068965517
13240.0,0.32454361054766734
13244.0,0.32454361054766734
13248.0,0.3093306288032454
13252.0,0.3012170385395537
13256.0,0.2961460446247465
13260.0,0.295131845841785
13264.0,0.2657200811359026
13268.0,0.2565922920892495
13272.0,0.2434077079107505
13276.0,0.22616632860040567
13280.0,0.2099391480730223
13284.0,0.19675456389452334
13288.0,0.1815415821501014
13292.0,0.16531440162271804
13296.0,0.15618661257606492
13300.0,0.13995943204868155
13304.0,0.12373225152129817
13308.0,0.11460446247464504
13312.0,0.10141987829614604
13316.0,0.0973630831643002
13320.0,0.08519269776876268
13324.0,0.08316430020283976
13328.0,0.08316430020283976
13332.0,0.0821501014198783
13336.0,0.0821501014198783
13340.0,0.0821501014198783
13344.0,0.08113590263691683
13348.0,0.08113590263691683
13352.0,0.08113590263691683
13356.0,0.0821501014198783
13360.0,0.08417849898580122
13364.0,0.08417849898580122
13368.0,0.0872210953346856
13372.0,0.0973630831643002
13376.0,0.10446247464503043
13380.0,0.11663286004056796
13384.0,0.12981744421906694
13388.0,0.13995943204868155
13392.0,0.15821501014198783
13396.0,0.1724137931034483
13400.0,0.18661257606490872
13404.0,0.1997971602434077
13408.0,0.21703853955375255
13412.0,0.2302231237322515
13416.0,0.2525354969574036
13420.0,0.26369168356997974
13424.0,0.2738336713995943
13428.0,0.29107505070993916
13432.0,0.2971602434077079
13436.0,0.3052738336713996
13440.0,0.31135902636916835
13444.0,0.3174442190669371
13448.0,0.3204868154158215
13452.0,0.3225152129817444
13456.0,0.32150101419878296
13460.0,0.31643002028397565
13464.0,0.3133874239350913
13468.0,0.31135902636916835
13472.0,0.3012170385395537
13476.0,0.29411764705882354
13480.0,0.2829614604462475
13484.0,0.2738336713995943
13488.0,0.26267748478701824
13492.0,0.24949290060851928
13496.0,0.14908722109533468
13500.0,0.25050709939148075
13504.0,0.2697768762677485
13508.0,0.28600405679513186
13512.0,0.295131845841785
13516.0,0.31135902636916835
13520.0,0.32454361054766734
13524.0,0.3367139959432049
13528.0,0.3448275862068966
13532.0,0.35496957403651114
13536.0,0.3630831643002028
13540.0,0.37322515212981744
13544.0,0.3772819472616633
13548.0,0.3742393509127789
13552.0,0.36815415821501013
13556.0,0.36004056795131845
13560.0,0.3488843813387424
13564.0,0.3306288032454361
13568.0,0.31643002028397565
13572.0,0.295131845841785
13576.0,0.2829614604462475
13580.0,0.26774847870182555
13584.0,0.2616632860040568
13588.0,0.23732251521298176
13592.0,0.22718052738336714
13596.0,0.21703853955375255
13600.0,0.20689655172413793
13604.0,0.20182555780933062
13608.0,0.19776876267748478
13612.0,0.19776876267748478
13616.0,0.19776876267748478
13620.0,0.19776876267748478
13624.0,0.20385395537525355
13628.0,0.20486815415821502
13632.0,0.21703853955375255
13636.0,0.22920892494929007
13640.0,0.23732251521298176
13644.0,0.2525354969574036
13648.0,0.2647058823529412
13652.0,0.2839756592292089
13656.0,0.295131845841785
13660.0,0.3133874239350913
13664.0,0.3286004056795132
13668.0,0.3438133874239351
13672.0,0.36004056795131845
13676.0,0.3762677484787018
13680.0,0.39148073022312374
13684.0,0.4056795131845842
13688.0,0.4239350912778905
13692.0,0.4279918864097363
13696.0,0.4411764705882353
13700.0,0.4432048681541582
13704.0,0.45233265720081134
13708.0,0.4563894523326572
13712.0,0.45740365111561865
13716.0,0.45740365111561865
13720.0,0.4513184584178499
13724.0,0.4421906693711968
13728.0,0.4340770791075051
13732.0,0.4249492900608519
13736.0,0.4117647058823529
13740.0,0.3945233265720081
13744.0,0.39148073022312374
13748.0,0.3772819472616633
13752.0,0.3640973630831643
13756.0,0.35598377281947263
13760.0,0.33975659229208927
13764.0,0.32454361054766734
13768.0,0.3154158215010142
13772.0,0.30628803245436104
13776.0,0.295131845841785
13780.0,0.28600405679513186
13784.0,0.2718052738336714
13788.0,0.26774847870182555
13792.0,0.2657200811359026
13796.0,0.26267748478701824
13800.0,0.27586206896551724
13804.0,0.2799188640973631
13808.0,0.29310344827586204
13812.0,0.31135902636916835
13816.0,0.32150101419878296
13820.0,0.45233265720081134
13824.0,0.3935091277890467
13828.0,0.3661257606490872
13832.0,0.34279918864097364
13836.0,0.3438133874239351
13840.0,0.31643002028397565
13844.0,0.31237322515212984
13848.0,0.30628803245436104
13852.0,0.30831643002028397
13856.0,0.31135902636916835
13860.0,0.3144016227180527
13864.0,0.3225152129817444
13868.0,0.3286004056795132
13872.0,0.33772819472616633
13876.0,0.34685598377281945
13880.0,0.3580121703853955
13884.0,0.3661257606490872
13888.0,0.385395537525355
13892.0,0.3945233265720081
13896.0,0.4066937119675456
13900.0,0.4249492900608519
13904.0,0.43610547667342797
13908.0,0.4543610547667343
13912.0,0.4695740365111562
13916.0,0.4847870182555781
13920.0,0.5030425963488844
13924.0,0.5192697768762677
13928.0,0.5283975659229209
13932.0,0.5415821501014199
13936.0,0.5547667342799188
13940.0,0.5598377281947262
13944.0,0.5730223123732252
13948.0,0.5760649087221096
13952.0,0.5801217038539553
13956.0,0.5801217038539553
13960.0,0.5780933062880325
13964.0,0.5750507099391481
13968.0,0.5709939148073022
13972.0,0.565922920892495
13976.0,0.5557809330628803
13980.0,0.5476673427991886
13984.0,0.539553752535497
13988.0,0.5283975659229209
13992.0,0.5192697768762677
13996.0,0.5
14000.0,0.4898580121703854
14004.0,0.4787018255578093
14008.0,0.4645030425963489
14012.0,0.45334685598377283
14016.0,0.44421906693711966
14020.0,0.4340770791075051
14024.0,0.4249492900608519
14028.0,0.41379310344827586
14032.0,0.4066937119675456
14036.0,0.40162271805273836
14040.0,0.3975659229208925
14044.0,0.39148073022312374
14048.0,0.39046653144016225
14052.0,0.39148073022312374
14056.0,0.3894523326572008
14060.0,0.39046653144016225
14064.0,0.3924949290060852
14068.0,0.39553752535496955
14072.0,0.4056795131845842
14076.0,0.41379310344827586
14080.0,0.42190669371196754
14084.0,0.4290060851926978
14088.0,0.4411764705882353
14092.0,0.4543610547667343
14096.0,0.46754563894523327
14100.0,0.48073022312373226
14104.0,0.4908722109533469
14108.0,0.5050709939148073
14112.0,0.5273833671399595
14116.0,0.5415821501014199
14120.0,0.5567951318458418
14124.0,0.5872210953346856
14128.0,0.5993914807302231
14132.0,0.6095334685598377
14136.0,0.6663286004056795
14140.0,0.5456389452332657
14144.0,0.5476673427991886
14148.0,0.5537525354969574
14152.0,0.5689655172413793
14156.0,0.59026369168357
14160.0,0.6196754563894523
14164.0,0.6490872210953347
14168.0,0.6896551724137931
14172.0,0.7241379310344828
14176.0,0.7626774847870182
14180.0,0.7799188640973631
14184.0,0.7920892494929006
14188.0,0.808316430020284
14192.0,0.8204868154158215
14196.0,0.8356997971602435
14200.0,0.8468559837728195
14204.0,0.8529411764705882
14208.0,0.8651115618661258
14212.0,0.8701825557809331
14216.0,0.8782961460446247
14220.0,0.8793103448275862
14224.0,0.8793103448275862
14228.0,0.8793103448275862
14232.0,0.8762677484787018
14236.0,0.8742393509127789
14240.0,0.8640973630831643
14244.0,0.8580121703853956
14248.0,0.8468559837728195
14252.0,0.845841784989858
14256.0,0.8326572008113591
14260.0,0.8174442190669371
14264.0,0.8113590263691683
14268.0,0.7981744421906694
14272.0,0.7870182555780934
14276.0,0.7789046653144016
14280.0,0.768762677484787
14284.0,0.7606490872210954
14288.0,0.7515212981744422
14292.0,0.7494929006085193
14296.0,0.7241379310344828
14300.0,0.7383367139959433
14304.0,0.7352941176470589
14308.0,0.7322515212981744
14312.0,0.7342799188640974
14316.0,0.7352941176470589
14320.0,0.7352941176470589
14324.0,0.742393509127789
14328.0,0.7474645030425964
14332.0,0.7525354969574036
14336.0,0.7596348884381339
14340.0,0.7758620689655172
14344.0,0.7809330628803245
14348.0,0.7931034482758621
14352.0,0.8133874239350912
14356.0,0.8265720081135902
14360.0,0.8336713995943205
14364.0,0.845841784989858
14368.0,0.8651115618661258
14372.0,0.8793103448275862
14376.0,0.896551724137931
14380.0,0.9117647058823529
14384.0,0.936105476673428
14388.0,0.9452332657200812
14392.0,0.9705882352941176
14396.0,0.9817444219066938
14400.0,1.0
14404.0,0.6064908722109533
14408.0,0.5841784989858012
14412.0,0.5679513184584178
14416.0,0.7565922920892495
14420.0,0.5537525354969574
14424.0,0.5862068965517241
14428.0,0.5547667342799188
14432.0,0.6298174442190669
14436.0,0.5578093306288032
14440.0,0.5709939148073022
14444.0,0.592292089249493
14448.0,0.592292089249493
14452.0,0.6064908722109533
14456.0,0.6206896551724138
14460.0,0.6359026369168357
14464.0,0.8580121703853956
14468.0,0.6663286004056795
14472.0,0.7150101419878296
14476.0,0.6866125760649088
14480.0,0.7768762677484787
14484.0,0.7028397565922921
14488.0,0.7099391480730223
14492.0,0.7170385395537525
14496.0,0.7170385395537525
14500.0,0.9279918864097363
14504.0,0.7170385395537525
14508.0,0.9330628803245437
14512.0,0.7170385395537525
14516.0,0.7261663286004056
14520.0,0.7129817444219066
14524.0,0.7079107505070994
14528.0,0.9249492900608519
14532.0,0.7150101419878296
14536.0,0.7190669371196755
14540.0,0.9127789046653144
14544.0,0.7403651115618661
14548.0,0.7626774847870182
14552.0,0.7778904665314401
14556.0,0.8093306288032455
14560.0,0.8194726166328601
14564.0,0.845841784989858
14568.0,0.8722109533468559
14572.0,0.9006085192697769
14576.0,0.9726166328600405
14580.0,0.2210953346855984
14584.0,0.19776876267748478
14588.0,0.1947261663286004
14592.0,0.1997971602434077
14596.0,0.20081135902636918
14600.0,0.18559837728194725
14604.0,0.1845841784989858
14608.0,0.18255578093306288
14612.0,0.20486815415821502
14616.0,0.20385395537525355
14620.0,0.1845841784989858
14624.0,0.18559837728194725
14628.0,0.19066937119675456
14632.0,0.19066937119675456
14636.0,0.1926977687626775
14640.0,0.140973630831643
14644.0,0.1105476673427992
14648.0,0.9797160243407708
14652.0,0.9442190669371197
14656.0,0.9249492900608519
14660.0,0.8894523326572008
14664.0,0.821501014198783
14668.0,0.781947261663286
14672.0,0.7139959432048681
14676.0,0.6693711967545639
14680.0,0.6389452332657201
14684.0,0.6095334685598377
14688.0,0.6024340770791075
14692.0,0.9269776876267748
14696.0,0.9432048681541582
14700.0,0.9442190669371197
14704.0,0.949290060851927
14708.0,0.9533468559837728
14712.0,0.960446247464503
14716.0,0.9665314401622718
14720.0,0.9695740365111561
14724.0,0.9695740365111561
14728.0,0.9766734279918864
14732.0,0.9766734279918864
14736.0,0.9776876267748479
14740.0,0.9827586206896551
14744.0,0.9898580121703854
14748.0,0.9929006085192698
14752.0,0.9949290060851927
14756.0,0.9898580121703854
14760.0,0.15517241379310345
14764.0,0.16937119675456389
14768.0,0.5152129817444219
14772.0,0.09533468559837728
14776.0,0.22210953346855983
14780.0,0.2231237322515213
14784.0,0.20486815415821502
14788.0,0.20385395537525355
14792.0,0.2028397565922921
14796.0,0.21602434077079108
14800.0,0.21805273833671399
14804.0,0.20182555780933062
14808.0,0.1997971602434077
14812.0,0.21196754563894524
14816.0,0.21399594320486814
14820.0,0.21602434077079108
14824.0,0.21703853955375255
14828.0,0.2210953346855984
14832.0,0.20689655172413793
14836.0,0.17849898580121704
14840.0,0.1744421906693712
14844.0,0.17545638945233266
14848.0,0.17748478701825557
14852.0,0.7413793103448276
14856.0,0.17139959432048682
14860.0,0.1744421906693712
14864.0,0.18661257606490872
14868.0,0.18661257606490872
14872.0,0.1876267748478702
14876.0,0.21602434077079108
14880.0,0.21703853955375255
14884.0,0.21703853955375255
14888.0,0.19675456389452334
14892.0,0.19776876267748478
14896.0,0.9594320486815415
14900.0,0.8894523326572008
14904.0,0.8154158215010142
14908.0,0.7636916835699797
14912.0,0.7170385395537525
14916.0,0.6866125760649088
14920.0,0.6673427991886409
14924.0,0.7545638945233266
14928.0,0.20486815415821502
14932.0,0.20182555780933062
14936.0,0.1997971602434077
14940.0,0.2383367139959432
14944.0,0.24036511156186613
14948.0,0.9949290060851927
14952.0,0.9523326572008114
14956.0,0.9249492900608519
14960.0,0.9006085192697769
14964.0,0.8762677484787018
14968.0,0.8742393509127789
14972.0,0.8498985801217038
14976.0,0.8438133874239351
14980.0,0.8397565922920892
14984.0,0.8417849898580122
14988.0,0.8468559837728195
14992.0,0.8498985801217038
14996.0,0.8640973630831643
15000.0,0.8772819472616633
15004.0,0.8985801217038539
15008.0,0.9117647058823529
15012.0,0.9279918864097363
15016.0,0.9533468559837728
15020.0,0.19574036511156187
15024.0,0.19574036511156187
15028.0,0.2028397565922921
15032.0,0.20486815415821502
15036.0,0.061866125760649086
15040.0,0.18661257606490872
15044.0,0.1876267748478702
15048.0,0.18864097363083165
15052.0,0.19066937119675456
15056.0,0.19066937119675456
15060.0,0.20588235294117646
15064.0,0.20486815415821502
15068.0,0.20385395537525355
15072.0,0.1997971602434077
15076.0,0.20182555780933062
15080.0,0.18356997971602435
15084.0,0.1815415821501014
15088.0,0.7870182555780934
15092.0,0.1744421906693712
15096.0,0.17647058823529413
15100.0,0.1795131845841785
15104.0,0.1612576064908722
15108.0,0.16024340770791076
15112.0,0.12677484787018256
15116.0,0.9989858012170385
15120.0,0.9391480730223124
15124.0,0.8793103448275862
15128.0,0.8255578093306288
15132.0,0.781947261663286
15136.0,0.7515212981744422
15140.0,0.7038539553752535
15144.0,0.6825557809330629
15148.0,0.6622718052738337
15152.0,0.6450304259634888
15156.0,0.6318458417849898
15160.0,0.6196754563894523
15164.0,0.6196754563894523
15168.0,0.6105476673427992
15172.0,0.6105476673427992
15176.0,0.6075050709939148
15180.0,0.6064908722109533
15184.0,0.6054766734279919
15188.0,0.6054766734279919
15192.0,0.6064908722109533
15196.0,0.6064908722109533
15200.0,0.6064908722109533
15204.0,0.6115618661257607
15208.0,0.6135902636916836
15212.0,0.6125760649087221
15216.0,0.6176470588235294
15220.0,0.6196754563894523
15224.0,0.6217038539553753
15228.0,0.6359026369168357
15232.0,0.640973630831643
15236.0,0.652129817444219
15240.0,0.6693711967545639
15244.0,0.691683569979716
15248.0,0.718052738336714
15252.0,0.7494929006085193
15256.0,0.7920892494929006
15260.0,0.8235294117647058
15264.0,0.8691683569979716
15268.0,0.9117647058823529
15272.0,0.960446247464503
15276.0,0.16531440162271804
15280.0,0.1663286004056795
15284.0,0.16835699797160245
15288.0,0.8864097363083164
15292.0,0.18559837728194725
15296.0,0.1845841784989858
15300.0,0.19675456389452334
15304.0,0.19371196754563894
15308.0,0.19168356997971603
15312.0,0.1896551724137931
15316.0,0.18864097363083165
15320.0,0.19675456389452334
15324.0,0.1947261663286004
15328.0,0.0010141987829614604
15332.0,0.10446247464503043
15336.0,0.20892494929006086
15340.0,0.2099391480730223
15344.0,0.9878296146044625
15348.0,0.17748478701825557
15352.0,0.17849898580121704
15356.0,0.18052738336713997
15360.0,0.1896551724137931
15364.0,0.15517241379310345
15368.0,0.15821501014198783
15372.0,0.9766734279918864
15376.0,0.9442190669371197
15380.0,0.9148073022312373
15384.0,0.8945233265720081
15388.0,0.8762677484787018
15392.0,0.8498985801217038
15396.0,0.8438133874239351
15400.0,0.8853955375253549
15404.0,0.18255578093306288
15408.0,0.1845841784989858
15412.0,0.1876267748478702
15416.0,0.9766734279918864
15420.0,0.1592292089249493
15424.0,0.17647058823529413
15428.0,0.19574036511156187
15432.0,0.21399594320486814
15436.0,0.2281947261663286
15440.0,0.24645030425963488
15444.0,0.26267748478701824
15448.0,0.3174442190669371
15452.0,0.3691683569979716
15456.0,0.422920892494929
15460.0,0.47565922920892495
15464.0,0.5436105476673428
15468.0,0.5943204868154158
15472.0,0.6622718052738337
15476.0,0.716024340770791
15480.0,0.781947261663286
15484.0,0.8286004056795132
15488.0,0.8975659229208925
15492.0,0.9371196754563894
15496.0,0.973630831643002
15500.0,1.0
15504.0,0.21906693711967545
15508.0,0.19168356997971603
15512.0,0.1896551724137931
15516.0,0.1876267748478702
15520.0,0.20892494929006086
15524.0,0.20689655172413793
15528.0,0.21095334685598377
15532.0,0.21399594320486814
15536.0,0.22616632860040567
15540.0,0.21906693711967545
15544.0,0.21805273833671399
15548.0,0.28600405679513186
15552.0,0.23935091277890466
15556.0,0.24036511156186613
15560.0,0.2413793103448276
15564.0,0.24036511156186613
15568.0,0.22718052738336714
15572.0,0.22718052738336714
15576.0,0.1997971602434077
15580.0,0.2799188640973631
15584.0,0.2565922920892495
15588.0,0.7018255578093306
15592.0,0.9898580121703854
15596.0,0.8539553752535497
15600.0,0.7920892494929006
15604.0,0.7302231237322515
15608.0,0.6967545638945233
15612.0,0.6460446247464503
15616.0,0.6004056795131846
15620.0,0.5760649087221096
15624.0,0.539553752535497
15628.0,0.5223123732251521
15632.0,0.5050709939148073
15636.0,0.4908722109533469
15640.0,0.4827586206896552
15644.0,0.48073022312373226
15648.0,0.4847870182555781
15652.0,0.4847870182555781
15656.0,0.4898580121703854
15660.0,0.4918864097363083
15664.0,0.5050709939148073
15668.0,0.5223123732251521
15672.0,0.5425963488843814
15676.0,0.5709939148073022
15680.0,0.5973630831643002
15684.0,0.6227180527383367
15688.0,0.6389452332657201
15692.0,0.6673427991886409
15696.0,0.09837728194726167
15700.0,0.1257606490872211
15704.0,0.17139959432048682
15708.0,0.1663286004056795
15712.0,0.17038539553752535
15716.0,0.17342799188640973
15720.0,0.907707910750507
15724.0,0.17647058823529413
15728.0,0.1744421906693712
15732.0,0.19168356997971603
15736.0,0.18356997971602435
15740.0,0.18052738336713997
15744.0,0.18255578093306288
15748.0,0.17038539553752535
15752.0,0.18356997971602435
15756.0,0.19066937119675456
15760.0,0.9168356997971603
15764.0,0.9036511156186613
15768.0,0.19168356997971603
15772.0,0.19371196754563894
15776.0,0.0
15780.0,0.21196754563894524
15784.0,0.21095334685598377
15788.0,0.17748478701825557
15792.0,0.17849898580121704
15796.0,0.1795131845841785
15800.0,0.7302231237322515
15804.0,0.7363083164300203
15808.0,0.7454361054766734
15812.0,0.755578093306288
15816.0,0.7667342799188641
15820.0,0.7849898580121704
15824.0,0.8154158215010142
15828.0,0.8498985801217038
15832.0,0.8864097363083164
15836.0,0.9432048681541582
15840.0,0.9817444219066938
15844.0,0.26267748478701824
15848.0,0.26369168356997974
15852.0,0.21703853955375255
15856.0,0.2210953346855984
15860.0,0.22515212981744423
15864.0,0.2231237322515213
15868.0,0.20892494929006086
15872.0,0.19066937119675456
15876.0,0.9716024340770791
15880.0,0.8539553752535497
15884.0,0.9726166328600405
15888.0,0.7170385395537525
15892.0,0.6572008113590264
15896.0,0.5882352941176471
15900.0,0.5436105476673428
15904.0,0.5385395537525355
15908.0,0.4158215010141988
15912.0,0.44421906693711966
15916.0,0.35699797160243407
15920.0,0.32150101419878296
15924.0,0.3012170385395537
15928.0,0.26267748478701824
15932.0,0.4513184584178499
15936.0,0.2210953346855984
15940.0,0.20892494929006086
15944.0,0.2150101419878296
15948.0,0.1896551724137931
15952.0,0.18356997971602435
15956.0,0.1815415821501014
15960.0,0.1845841784989858
15964.0,0.26267748478701824
15968.0,0.1947261663286004
15972.0,0.1997971602434077
15976.0,0.28904665314401623
15980.0,0.23935091277890466
15984.0,0.2718052738336714
15988.0,0.5162271805273834
15992.0,0.3275862068965517
15996.0,0.3438133874239351
16000.0,0.5811359026369168
16004.0,0.3924949290060852
16008.0,0.42697768762677485
16012.0,0.4827586206896552
16016.0,0.7170385395537525
16020.0,0.5334685598377282
16024.0,0.5517241379310345
16028.0,0.7829614604462475
16032.0,0.6004056795131846
16036.0,0.6247464503042597
16040.0,0.8438133874239351
16044.0,0.6632860040567952
16048.0,0.744421906693712
16052.0,0.7941176470588235
16056.0,0.8144016227180527
16060.0,0.8164300202839757
16064.0,0.8336713995943205
16068.0,0.8884381338742393
16072.0,0.8640973630831643
16076.0,0.8793103448275862
16080.0,0.9066937119675457
16084.0,0.9117647058823529
16088.0,0.9330628803245437
16092.0,0.960446247464503
16096.0,0.9665314401622718
16100.0,0.9787018255578094
16104.0,0.09634888438133875
16108.0,0.09432048681541583
16112.0,0.08823529411764706
16116.0,0.9979716024340771
16120.0,0.9898580121703854
16124.0,0.9827586206896551
16128.0,0.9766734279918864
16132.0,0.9746450304259635
16136.0,0.9705882352941176
16140.0,0.9675456389452333
16144.0,0.9685598377281948
16148.0,0.9716024340770791
16152.0,0.973630831643002
16156.0,0.9756592292089249
16160.0,0.9766734279918864
16164.0,0.9888438133874239
16168.0,0.9898580121703854
16172.0,0.9979716024340771
16176.0,0.12981744421906694
16180.0,0.12981744421906694
16184.0,0.1612576064908722
16188.0,0.1643002028397566
16192.0,0.17748478701825557
16196.0,0.18255578093306288
16200.0,0.1845841784989858
16204.0,0.18864097363083165
16208.0,0.20385395537525355
16212.0,0.20081135902636918
16216.0,0.22718052738336714
16220.0,0.2302231237322515
16224.0,0.23123732251521298
16228.0,0.21095334685598377
16232.0,0.2079107505070994
16236.0,0.14807302231237324
16240.0,0.15517241379310345
16244.0,0.2434077079107505
16248.0,0.2434077079107505
16252.0,0.4411764705882353
16256.0,0.9127789046653144
16260.0,0.654158215010142
16264.0,0.7038539553752535
16268.0,0.7494929006085193
16272.0,0.7880324543610547
16276.0,0.8377281947261663
16280.0,0.8813387423935092
16284.0,0.9259634888438134
16288.0,0.9705882352941176
16292.0,0.2657200811359026
16296.0,0.12677484787018256
16300.0,0.12271805273833672
16304.0,0.6369168356997972
16308.0,0.09634888438133875
16312.0,0.09634888438133875
16316.0,0.15720081135902636
16320.0,0.11967545638945233
16324.0,0.1206896551724138
16328.0,0.13793103448275862
16332.0,0.1075050709939148
16336.0,0.1105476673427992
16340.0,0.12677484787018256
16344.0,0.27586206896551724
16348.0,0.17038539553752535
16352.0,0.16835699797160245
16356.0,0.39655172413793105
16360.0,0.39655172413793105
16364.0,0.39553752535496955
16368.0,0.8468559837728195
16372.0,0.7586206896551724
16376.0,0.7961460446247465
16380.0,0.8144016227180527
16384.0,0.8336713995943205
16388.0,0.8559837728194726
16392.0,0.9066937119675457
16396.0,0.9219066937119675
16400.0,0.936105476673428
16404.0,0.9614604462474645
16408.0,0.9847870182555781
16412.0,0.1105476673427992
16416.0,0.11460446247464504
16420.0,0.11967545638945233
16424.0,0.19776876267748478
16428.0,0.1997971602434077
16432.0,0.20182555780933062
16436.0,0.21602434077079108
16440.0,0.2150101419878296
16444.0,0.21399594320486814
16448.0,0.18255578093306288
16452.0,0.18255578093306288
16456.0,0.19066937119675456
16460.0,0.1926977687626775
16464.0,0.896551724137931
16468.0,0.8529411764705882
16472.0,0.16531440162271804
16476.0,0.16734279918864098
16480.0,0.1845841784989858
16484.0,0.1592292089249493
16488.0,0.16835699797160245
16492.0,0.17038539553752535
16496.0,0.8488843813387424
16500.0,0.15314401622718052
16504.0,0.14908722109533468
16508.0,0.14705882352941177
16512.0,0.16531440162271804
16516.0,0.15314401622718052
16520.0,0.9746450304259635
16524.0,0.936105476673428
16528.0,0.9117647058823529
16532.0,0.8742393509127789
16536.0,0.8417849898580122
16540.0,0.8245436105476673
16544.0,0.7920892494929006
16548.0,0.7748478701825557
16552.0,0.7596348884381339
16556.0,0.7403651115618661
16560.0,0.7271805273833671
16564.0,0.7170385395537525
16568.0,0.7139959432048681
16572.0,0.7068965517241379
16576.0,0.704868154158215
16580.0,0.7028397565922921
16584.0,0.7058823529411765
16588.0,0.7139959432048681
16592.0,0.7170385395537525
16596.0,0.731237322515213
16600.0,0.9269776876267748
16604.0,0.23529411764705882
16608.0,0.23732251521298176
16612.0,0.25557809330628806
16616.0,0.25557809330628806
16620.0,0.22718052738336714
16624.0,0.22616632860040567
16628.0,0.22413793103448276
16632.0,0.2281947261663286
16636.0,0.28498985801217036
16640.0,0.14198782961460446
16644.0,0.1440162271805274
16648.0,0.16531440162271804
16652.0,0.16328600405679514
16656.0,0.13793103448275862
16660.0,0.13691683569979715
16664.0,0.13691683569979715
16668.0,0.9776876267748479
16672.0,0.9574036511156186
16676.0,0.9290060851926978
16680.0,0.9168356997971603
16684.0,0.9006085192697769
16688.0,0.8813387423935092
16692.0,0.8630831643002028
16696.0,0.8468559837728195
16700.0,0.8448275862068966
16704.0,0.8154158215010142
16708.0,0.8042596348884381
16712.0,0.8012170385395537
16716.0,0.7799188640973631
16720.0,0.7677484787018256
16724.0,0.7697768762677485
16728.0,0.7505070993914807
16732.0,0.7484787018255578
16736.0,0.7474645030425964
16740.0,0.7322515212981744
16744.0,0.731237322515213
16748.0,0.7383367139959433
16752.0,0.7190669371196755
16756.0,0.718052738336714
16760.0,0.718052738336714
16764.0,0.7170385395537525
16768.0,0.8813387423935092
16772.0,0.7241379310344828
16776.0,0.7200811359026369
16780.0,0.7271805273833671
16784.0,0.7484787018255578
16788.0,0.7860040567951319
16792.0,0.7494929006085193
16796.0,0.7464503042596349
16800.0,0.7494929006085193
16804.0,0.7758620689655172
16808.0,0.7565922920892495
16812.0,0.9645030425963489
16816.0,0.7657200811359026
16820.0,0.9675456389452333
16824.0,0.7677484787018256
16828.0,0.7667342799188641
16832.0,0.7870182555780934
16836.0,0.7596348884381339
16840.0,0.755578093306288
16844.0,0.7464503042596349
16848.0,0.8275862068965517
16852.0,0.7150101419878296
16856.0,0.6957403651115619
16860.0,0.6754563894523327
16864.0,0.6663286004056795
16868.0,0.6683569979716024
16872.0,0.6217038539553753
16876.0,0.6115618661257607
16880.0,0.5851926977687627
16884.0,0.7657200811359026
16888.0,0.5273833671399595
16892.0,0.4898580121703854
16896.0,0.4685598377281947
16900.0,0.6135902636916836
16904.0,0.4421906693711968
16908.0,0.42190669371196754
16912.0,0.40365111561866124
16916.0,0.3894523326572008
16920.0,0.5436105476673428
16924.0,0.39553752535496955
16928.0,0.3671399594320487
16932.0,0.3630831643002028
16936.0,0.36004056795131845
16940.0,0.5740365111561866
16944.0,0.36105476673427994
16948.0,0.36511156186612576
16952.0,0.3762677484787018
16956.0,0.37322515212981744
16960.0,0.3772819472616633
16964.0,0.6024340770791075
16968.0,0.3924949290060852
16972.0,0.39858012170385393
16976.0,0.5223123732251521
16980.0,0.4239350912778905
16984.0,0.4249492900608519
16988.0,0.4411764705882353
16992.0,0.4553752535496957
16996.0,0.45841784989858014
17000.0,0.4695740365111562
17004.0,0.652129817444219
17008.0,0.3539553752535497
17012.0,0.28600405679513186
17016.0,0.2870182555780933
17020.0,0.486815415821501
17024.0,0.295131845841785
17028.0,0.2961460446247465
17032.0,0.5
17036.0,0.31237322515212984
17040.0,0.3204868154158215
17044.0,0.4462474645030426
17048.0,0.33874239350912777
17052.0,0.34685598377281945
17056.0,0.36004056795131845
17060.0,0.3762677484787018
17064.0,0.38336713995943206
17068.0,0.3935091277890467
17072.0,0.4178498985801217
17076.0,0.4208924949290061
17080.0,0.43103448275862066
17084.0,0.47058823529411764
17088.0,0.4543610547667343
17092.0,0.4645030425963489
17096.0,0.4898580121703854
17100.0,0.48782961460446245
17104.0,0.49594320486815413
17108.0,0.7058823529411765
17112.0,0.5202839756592292
17116.0,0.5223123732251521
17120.0,0.7150101419878296
17124.0,0.5365111561866126
17128.0,0.537525354969574
17132.0,0.6774847870182555
17136.0,0.5425963488843814
17140.0,0.537525354969574
17144.0,0.563894523326572
17148.0,0.5324543610547667
17152.0,0.5233265720081136
17156.0,0.6977687626774848
17160.0,0.5050709939148073
17164.0,0.4949290060851927
17168.0,0.4969574036511156
17172.0,0.4766734279918864
17176.0,0.46247464503042596
17180.0,0.4543610547667343
17184.0,0.4432048681541582
17188.0,0.4249492900608519
17192.0,0.41683569979716023
17196.0,0.40365111561866124
17200.0,0.3924949290060852
17204.0,0.385395537525355
17208.0,0.38235294117647056
17212.0,0.3630831643002028
17216.0,0.35496957403651114
17220.0,0.3539553752535497
17224.0,0.33874239350912777
17228.0,0.332657200811359
17232.0,0.3184584178498986
17236.0,0.3275862068965517
17240.0,0.3144016227180527
17244.0,0.3174442190669371
17248.0,0.32150101419878296
17252.0,0.3407707910750507
17256.0,0.3407707910750507
17260.0,0.35192697768762676
17264.0,0.3711967545638945
17268.0,0.38235294117647056
17272.0,0.4117647058823529
17276.0,0.41886409736308317
17280.0,0.4543610547667343
17284.0,0.45740365111561865
17288.0,0.4716024340770791
17292.0,0.6866125760649088
17296.0,0.5192697768762677
17300.0,0.6683569979716024
17304.0,0.552738336713996
17308.0,0.5618661257606491
17312.0,0.577079107505071
17316.0,0.5943204868154158
17320.0,0.6024340770791075
17324.0,0.6166328600405679
17328.0,0.6359026369168357
17332.0,0.6359026369168357
17336.0,0.6470588235294118
17340.0,0.8468559837728195
17344.0,0.6531440162271805
17348.0,0.6592292089249493
17352.0,0.6937119675456389
17356.0,0.6683569979716024
17360.0,0.6683569979716024
17364.0,0.7890466531440162
17368.0,0.6643002028397565
17372.0,0.6592292089249493
17376.0,0.6551724137931034
17380.0,0.6531440162271805
17384.0,0.6419878296146044
17388.0,0.6004056795131846
17392.0,0.6987829614604463
17396.0,0.4898580121703854
17400.0,0.5010141987829615
17404.0,0.5253549695740365
17408.0,0.5243407707910751
17412.0,0.5324543610547667
17416.0,0.5557809330628803
17420.0,0.552738336713996
17424.0,0.5567951318458418
17428.0,0.5801217038539553
17432.0,0.5709939148073022
17436.0,0.5720081135902637
17440.0,0.757606490872211
17444.0,0.5841784989858012
17448.0,0.5831643002028397
17452.0,0.768762677484787
17456.0,0.6004056795131846
17460.0,0.5933062880324543
17464.0,0.6004056795131846
17468.0,0.603448275862069
17472.0,0.6024340770791075
17476.0,0.6064908722109533
17480.0,0.6125760649087221
17484.0,0.6186612576064908
17488.0,0.6227180527383367
17492.0,0.6338742393509128
17496.0,0.6369168356997972
17500.0,0.6501014198782962
17504.0,0.6612576064908722
17508.0,0.6693711967545639
17512.0,0.6845841784989858
17516.0,0.7028397565922921
17520.0,0.7170385395537525
17524.0,0.7302231237322515
17528.0,0.7515212981744422
17532.0,0.77079107505071
17536.0,0.7890466531440162
17540.0,0.8144016227180527
17544.0,0.8427991886409736
17548.0,0.8661257606490872
17552.0,0.896551724137931
17556.0,0.934077079107505
17560.0,0.960446247464503
17564.0,0.16531440162271804
17568.0,0.17342799188640973
17572.0,0.5283975659229209
17576.0,0.4482758620689655
17580.0,0.39046653144016225
17584.0,0.34787018255578095
17588.0,0.30628803245436104
17592.0,0.268762677484787
17596.0,0.2413793103448276
17600.0,0.19675456389452334
17604.0,0.16531440162271804
17608.0,0.13387423935091278
17612.0,0.1075050709939148
17616.0,0.09432048681541583
17620.0,0.08823529411764706
17624.0,0.08316430020283976
17628.0,0.0821501014198783
17632.0,0.0821501014198783
17636.0,0.08113590263691683
17640.0,0.08417849898580122
17644.0,0.10141987829614604
17648.0,0.12981744421906694
17652.0,0.1440162271805274
17656.0,0.16531440162271804
17660.0,0.1795131845841785
17664.0,0.20081135902636918
17668.0,0.21399594320486814
17672.0,0.2281947261663286
17676.0,0.2484787018255578
17680.0,0.2799188640973631
17684.0,0.30628803245436104
17688.0,0.3509127789046653
17692.0,0.37018255578093306
17696.0,0.39553752535496955
17700.0,0.4259634888438134
17704.0,0.4553752535496957
17708.0,0.48377281947261663
17712.0,0.5050709939148073
17716.0,0.5334685598377282
17720.0,0.5547667342799188
17724.0,0.5709939148073022
17728.0,0.5841784989858012
17732.0,0.592292089249493
17736.0,0.6014198782961461
17740.0,0.6125760649087221
17744.0,0.6196754563894523
17748.0,0.6247464503042597
17752.0,0.6359026369168357
17756.0,0.640973630831643
17760.0,0.6430020283975659
17764.0,0.6490872210953347
17768.0,0.652129817444219
17772.0,0.6531440162271805
17776.0,0.6572008113590264
17780.0,0.665314401622718
17784.0,0.6703853955375254
17788.0,0.6754563894523327
17792.0,0.6866125760649088
17796.0,0.6957403651115619
17800.0,0.7058823529411765
17804.0,0.7190669371196755
17808.0,0.731237322515213
17812.0,0.7454361054766734
17816.0,0.7657200811359026
17820.0,0.781947261663286
17824.0,0.7890466531440162
17828.0,0.8123732251521298
17832.0,0.8194726166328601
17836.0,0.8356997971602435
17840.0,0.8691683569979716
17844.0,0.8945233265720081
17848.0,0.9087221095334685
17852.0,0.9239350912778904
17856.0,0.9310344827586207
17860.0,0.9503042596348884
17864.0,0.9705882352941176
17868.0,0.9817444219066938
17872.0,0.8955375253549696
17876.0,0.9219066937119675
17880.0,0.9269776876267748
17884.0,0.9432048681541582
17888.0,0.9716024340770791
17892.0,0.986815415821501
17896.0,0.11460446247464504
17900.0,0.11561866125760649
17904.0,0.2920892494929006
17908.0,0.16024340770791076
17912.0,0.16227180527383367
17916.0,0.16531440162271804
17920.0,0.16734279918864098
17924.0,0.22920892494929007
17928.0,0.2281947261663286
17932.0,0.2281947261663286
17936.0,0.2697768762677485
17940.0,0.27586206896551724
17944.0,0.281947261663286
17948.0,0.25862068965517243
17952.0,0.25557809330628806
17956.0,0.27586206896551724
17960.0,0.28904665314401623
17964.0,0.2484787018255578
17968.0,0.25456389452332656
17972.0,0.24543610547667344
17976.0,0.6054766734279919
17980.0,0.21805273833671399
17984.0,0.22008113590263692
17988.0,0.22210953346855983
17992.0,0.2231237322515213
17996.0,0.2079107505070994
18000.0,0.2079107505070994
18004.0,0.20588235294117646
18008.0,0.20588235294117646
18012.0,0.20486815415821502
18016.0,0.25050709939148075
18020.0,0.2484787018255578
18024.0,0.22920892494929007
18028.0,0.23123732251521298
18032.0,0.25557809330628806
18036.0,0.21399594320486814
18040.0,0.27586206896551724
18044.0,0.2332657200811359
18048.0,0.23123732251521298
18052.0,0.26774847870182555
18056.0,0.268762677484787
18060.0,0.2697768762677485
18064.0,0.24949290060851928
18068.0,0.25050709939148075
18072.0,0.2535496957403651
