time,value
0,0.7883211970329284
4,0.7226277589797973
8,0.4866180121898651
12,0.22141119837760925
16,0.11922141164541245
20,0.10705596208572388
24,0.06812652200460434
28,0.06082725152373314
32,0.04622871056199074
36,0.04136253148317337
40,0.0
44,0.009732360020279884
48,0.017031630501151085
52,0.03406326100230217
56,0.04866180196404457
60,0.08272506296634674
64,0.0729926973581314
68,0.09245742112398148
72,0.09732360392808914
76,0.1167883202433586
80,0.10462287068367004
84,0.12165450304746628
88,0.12165450304746628
92,0.15328466892242432
96,0.16545012593269348
100,0.1873479336500168
104,0.1751824766397476
108,0.1897810250520706
112,0.1751824766397476
116,0.16788321733474731
120,0.16301703453063965
124,0.1873479336500168
128,0.20194646716117856
132,0.22871045768260956
136,0.24087591469287872
140,0.2725060880184173
144,0.24330900609493253
148,0.26520681381225586
152,0.2457420974969864
156,0.2530413568019867
160,0.2165450155735016
164,0.2335766404867172
168,0.20681264996528623
172,0.2092457413673401
176,0.1970802992582321
180,0.21167883276939392
184,0.18491484224796292
188,0.1751824766397476
192,0.18004865944385529
196,0.1873479336500168
200,0.17761556804180145
204,0.19464720785617828
208,0.1873479336500168
212,0.21411192417144773
216,0.20681264996528623
220,0.22141119837760925
224,0.20681264996528623
228,0.21411192417144773
232,0.2335766404867172
236,0.2944038808345794
240,0.3479318618774414
244,0.43552312254905695
248,0.6496350169181824
252,0.885644793510437
256,0.9878345727920531
260,1.0
264,0.8029196858406067
268,0.5133820176124573
272,0.21167883276939392
276,0.09245742112398148
280,0.0656934306025505
284,0.06326033920049667
288,0.04136253148317337
292,0.04622871056199074
296,0.03406326100230217
300,0.04136253148317337
304,0.03163016960024834
308,0.0437956191599369
312,0.03163016960024834
316,0.0364963486790657
320,0.029197080060839653
324,0.03406326100230217
328,0.017031630501151085
328,0.7883211970329284
332,0.7226277589797973
336,0.4866180121898651
340,0.22141119837760925
344,0.11922141164541245
348,0.10705596208572388
352,0.06812652200460434
356,0.06082725152373314
360,0.04622871056199074
364,0.04136253148317337
368,0.0
372,0.009732360020279884
376,0.017031630501151085
380,0.03406326100230217
384,0.04866180196404457
388,0.08272506296634674
392,0.0729926973581314
396,0.09245742112398148
400,0.09732360392808914
404,0.1167883202433586
408,0.10462287068367004
412,0.12165450304746628
416,0.12165450304746628
420,0.15328466892242432
424,0.16545012593269348
428,0.1873479336500168
432,0.1751824766397476
436,0.1897810250520706
440,0.1751824766397476
444,0.16788321733474731
448,0.16301703453063965
452,0.1873479336500168
456,0.20194646716117856
460,0.22871045768260956
464,0.24087591469287872
468,0.2725060880184173
472,0.24330900609493253
476,0.26520681381225586
480,0.2457420974969864
484,0.2530413568019867
488,0.2165450155735016
492,0.2335766404867172
496,0.20681264996528623
500,0.2092457413673401
504,0.1970802992582321
508,0.21167883276939392
512,0.18491484224796292
516,0.1751824766397476
520,0.18004865944385529
524,0.1873479336500168
528,0.17761556804180145
532,0.19464720785617828
536,0.1873479336500168
540,0.21411192417144773
544,0.20681264996528623
548,0.22141119837760925
552,0.20681264996528623
556,0.21411192417144773
560,0.2335766404867172
564,0.2944038808345794
568,0.3479318618774414
572,0.43552312254905695
576,0.6496350169181824
580,0.885644793510437
584,0.9878345727920531
588,1.0
592,0.8029196858406067
596,0.5133820176124573
600,0.21167883276939392
604,0.09245742112398148
608,0.0656934306025505
612,0.06326033920049667
616,0.04136253148317337
620,0.04622871056199074
624,0.03406326100230217
628,0.04136253148317337
632,0.03163016960024834
636,0.0437956191599369
640,0.03163016960024834
644,0.0364963486790657
648,0.029197080060839653
652,0.03406326100230217
656,0.017031630501151085
656,0.7883211970329284
660,0.7226277589797973
664,0.4866180121898651
668,0.22141119837760925
672,0.11922141164541245
676,0.10705596208572388
680,0.06812652200460434
684,0.06082725152373314
688,0.04622871056199074
692,0.04136253148317337
696,0.0
700,0.009732360020279884
704,0.017031630501151085
708,0.03406326100230217
712,0.04866180196404457
716,0.08272506296634674
720,0.0729926973581314
724,0.09245742112398148
728,0.09732360392808914
732,0.1167883202433586
736,0.10462287068367004
740,0.12165450304746628
744,0.12165450304746628
748,0.15328466892242432
752,0.16545012593269348
756,0.1873479336500168
760,0.1751824766397476
764,0.1897810250520706
768,0.1751824766397476
772,0.16788321733474731
776,0.16301703453063965
780,0.1873479336500168
784,0.20194646716117856
788,0.22871045768260956
792,0.24087591469287872
796,0.2725060880184173
800,0.24330900609493253
804,0.26520681381225586
808,0.2457420974969864
812,0.2530413568019867
816,0.2165450155735016
820,0.2335766404867172
824,0.20681264996528623
828,0.2092457413673401
832,0.1970802992582321
836,0.21167883276939392
840,0.18491484224796292
844,0.1751824766397476
848,0.18004865944385529
852,0.1873479336500168
856,0.17761556804180145
860,0.19464720785617828
864,0.1873479336500168
868,0.21411192417144773
872,0.20681264996528623
876,0.22141119837760925
880,0.20681264996528623
884,0.21411192417144773
888,0.2335766404867172
892,0.2944038808345794
896,0.3479318618774414
900,0.43552312254905695
904,0.6496350169181824
908,0.885644793510437
912,0.9878345727920531
916,1.0
920,0.8029196858406067
924,0.5133820176124573
928,0.21167883276939392
932,0.09245742112398148
936,0.0656934306025505
940,0.06326033920049667
944,0.04136253148317337
948,0.04622871056199074
952,0.03406326100230217
956,0.04136253148317337
960,0.03163016960024834
964,0.0437956191599369
968,0.03163016960024834
972,0.0364963486790657
976,0.029197080060839653
980,0.03406326100230217
984,0.017031630501151085
984,0.7883211970329284
988,0.7226277589797973
992,0.4866180121898651
996,0.22141119837760925
1000,0.11922141164541245
1004,0.10705596208572388
1008,0.06812652200460434
1012,0.06082725152373314
1016,0.04622871056199074
1020,0.04136253148317337
1024,0.0
1028,0.009732360020279884
1032,0.017031630501151085
1036,0.03406326100230217
1040,0.04866180196404457
1044,0.08272506296634674
1048,0.0729926973581314
1052,0.09245742112398148
1056,0.09732360392808914
1060,0.1167883202433586
1064,0.10462287068367004
1068,0.12165450304746628
1072,0.12165450304746628
1076,0.15328466892242432
1080,0.16545012593269348
1084,0.1873479336500168
1088,0.1751824766397476
1092,0.1897810250520706
1096,0.1751824766397476
1100,0.16788321733474731
1104,0.16301703453063965
1108,0.1873479336500168
1112,0.20194646716117856
1116,0.22871045768260956
1120,0.24087591469287872
1124,0.2725060880184173
1128,0.24330900609493253
1132,0.26520681381225586
1136,0.2457420974969864
1140,0.2530413568019867
1144,0.2165450155735016
1148,0.2335766404867172
1152,0.20681264996528623
1156,0.2092457413673401
1160,0.1970802992582321
1164,0.21167883276939392
1168,0.18491484224796292
1172,0.1751824766397476
1176,0.18004865944385529
1180,0.1873479336500168
1184,0.17761556804180145
1188,0.19464720785617828
1192,0.1873479336500168
1196,0.21411192417144773
1200,0.20681264996528623
1204,0.22141119837760925
1208,0.20681264996528623
1212,0.21411192417144773
1216,0.2335766404867172
1220,0.2944038808345794
1224,0.3479318618774414
1228,0.43552312254905695
1232,0.6496350169181824
1236,0.885644793510437
1240,0.9878345727920531
1244,1.0
1248,0.8029196858406067
1252,0.5133820176124573
1256,0.21167883276939392
1260,0.09245742112398148
1264,0.0656934306025505
1268,0.06326033920049667
1272,0.04136253148317337
1276,0.04622871056199074
1280,0.03406326100230217
1284,0.04136253148317337
1288,0.03163016960024834
1292,0.0437956191599369
1296,0.03163016960024834
1300,0.0364963486790657
1304,0.029197080060839653
1308,0.03406326100230217
1312,0.017031630501151085
1312,0.7883211970329284
1316,0.7226277589797973
1320,0.4866180121898651
1324,0.22141119837760925
1328,0.11922141164541245
1332,0.10705596208572388
1336,0.06812652200460434
1340,0.06082725152373314
1344,0.04622871056199074
1348,0.04136253148317337
1352,0.0
1356,0.009732360020279884
1360,0.017031630501151085
1364,0.03406326100230217
1368,0.04866180196404457
1372,0.08272506296634674
1376,0.0729926973581314
1380,0.09245742112398148
1384,0.09732360392808914
1388,0.1167883202433586
1392,0.10462287068367004
1396,0.12165450304746628
1400,0.12165450304746628
1404,0.15328466892242432
1408,0.16545012593269348
1412,0.1873479336500168
1416,0.1751824766397476
1420,0.1897810250520706
1424,0.1751824766397476
1428,0.16788321733474731
1432,0.16301703453063965
1436,0.1873479336500168
1440,0.20194646716117856
1444,0.22871045768260956
1448,0.24087591469287872
1452,0.2725060880184173
1456,0.24330900609493253
1460,0.26520681381225586
1464,0.2457420974969864
1468,0.2530413568019867
1472,0.2165450155735016
1476,0.2335766404867172
1480,0.20681264996528623
1484,0.2092457413673401
1488,0.1970802992582321
1492,0.21167883276939392
1496,0.18491484224796292
1500,0.1751824766397476
1504,0.18004865944385529
1508,0.1873479336500168
1512,0.17761556804180145
1516,0.19464720785617828
1520,0.1873479336500168
1524,0.21411192417144773
1528,0.20681264996528623
1532,0.22141119837760925
1536,0.20681264996528623
1540,0.21411192417144773
1544,0.2335766404867172
1548,0.2944038808345794
1552,0.3479318618774414
1556,0.43552312254905695
1560,0.6496350169181824
1564,0.885644793510437
1568,0.9878345727920531
1572,1.0
1576,0.8029196858406067
1580,0.5133820176124573
1584,0.21167883276939392
1588,0.09245742112398148
1592,0.0656934306025505
1596,0.06326033920049667
1600,0.04136253148317337
1604,0.04622871056199074
1608,0.03406326100230217
1612,0.04136253148317337
1616,0.03163016960024834
1620,0.0437956191599369
1624,0.03163016960024834
1628,0.0364963486790657
1632,0.029197080060839653
1636,0.03406326100230217
1640,0.017031630501151085
1640,0.7883211970329284
1644,0.7226277589797973
1648,0.4866180121898651
1652,0.22141119837760925
1656,0.11922141164541245
1660,0.10705596208572388
1664,0.06812652200460434
1668,0.06082725152373314
1672,0.04622871056199074
1676,0.04136253148317337
1680,0.0
1684,0.009732360020279884
1688,0.017031630501151085
1692,0.03406326100230217
1696,0.04866180196404457
1700,0.08272506296634674
1704,0.0729926973581314
1708,0.09245742112398148
1712,0.09732360392808914
1716,0.1167883202433586
1720,0.10462287068367004
1724,0.12165450304746628
1728,0.12165450304746628
1732,0.15328466892242432
1736,0.16545012593269348
1740,0.1873479336500168
1744,0.1751824766397476
1748,0.1897810250520706
1752,0.1751824766397476
1756,0.16788321733474731
1760,0.16301703453063965
1764,0.1873479336500168
1768,0.20194646716117856
1772,0.22871045768260956
1776,0.24087591469287872
1780,0.2725060880184173
1784,0.24330900609493253
1788,0.26520681381225586
1792,0.2457420974969864
1796,0.2530413568019867
1800,0.2165450155735016
1804,0.2335766404867172
1808,0.20681264996528623
1812,0.2092457413673401
1816,0.1970802992582321
1820,0.21167883276939392
1824,0.18491484224796292
1828,0.1751824766397476
1832,0.18004865944385529
1836,0.1873479336500168
1840,0.17761556804180145
1844,0.19464720785617828
1848,0.1873479336500168
1852,0.21411192417144773
1856,0.20681264996528623
1860,0.22141119837760925
1864,0.20681264996528623
1868,0.21411192417144773
1872,0.2335766404867172
1876,0.2944038808345794
1880,0.3479318618774414
1884,0.43552312254905695
1888,0.6496350169181824
1892,0.885644793510437
1896,0.9878345727920531
1900,1.0
1904,0.8029196858406067
1908,0.5133820176124573
1912,0.21167883276939392
1916,0.09245742112398148
1920,0.0656934306025505
1924,0.06326033920049667
1928,0.04136253148317337
1932,0.04622871056199074
1936,0.03406326100230217
1940,0.04136253148317337
1944,0.03163016960024834
1948,0.0437956191599369
1952,0.03163016960024834
1956,0.0364963486790657
1960,0.029197080060839653
1964,0.03406326100230217
1968,0.017031630501151085
1968,0.7883211970329284
1972,0.7226277589797973
1976,0.4866180121898651
1980,0.22141119837760925
1984,0.11922141164541245
1988,0.10705596208572388
1992,0.06812652200460434
1996,0.06082725152373314
2000,0.04622871056199074
2004,0.04136253148317337
2008,0.0
2012,0.009732360020279884
2016,0.017031630501151085
2020,0.03406326100230217
2024,0.04866180196404457
2028,0.08272506296634674
2032,0.0729926973581314
2036,0.09245742112398148
2040,0.09732360392808914
2044,0.1167883202433586
2048,0.10462287068367004
2052,0.12165450304746628
2056,0.12165450304746628
2060,0.15328466892242432
2064,0.16545012593269348
2068,0.1873479336500168
2072,0.1751824766397476
2076,0.1897810250520706
2080,0.1751824766397476
2084,0.16788321733474731
2088,0.16301703453063965
2092,0.1873479336500168
2096,0.20194646716117856
2100,0.22871045768260956
2104,0.24087591469287872
2108,0.2725060880184173
2112,0.24330900609493253
2116,0.26520681381225586
2120,0.2457420974969864
2124,0.2530413568019867
2128,0.2165450155735016
2132,0.2335766404867172
2136,0.20681264996528623
2140,0.2092457413673401
2144,0.1970802992582321
2148,0.21167883276939392
2152,0.18491484224796292
2156,0.1751824766397476
2160,0.18004865944385529
2164,0.1873479336500168
2168,0.17761556804180145
2172,0.19464720785617828
2176,0.1873479336500168
2180,0.21411192417144773
2184,0.20681264996528623
2188,0.22141119837760925
2192,0.20681264996528623
2196,0.21411192417144773
2200,0.2335766404867172
2204,0.2944038808345794
2208,0.3479318618774414
2212,0.43552312254905695
2216,0.6496350169181824
2220,0.885644793510437
2224,0.9878345727920531
2228,1.0
2232,0.8029196858406067
2236,0.5133820176124573
2240,0.21167883276939392
2244,0.09245742112398148
2248,0.0656934306025505
2252,0.06326033920049667
2256,0.04136253148317337
2260,0.04622871056199074
2264,0.03406326100230217
2268,0.04136253148317337
2272,0.03163016960024834
2276,0.0437956191599369
2280,0.03163016960024834
2284,0.0364963486790657
2288,0.029197080060839653
2292,0.03406326100230217
2296,0.017031630501151085
2296,0.7883211970329284
2300,0.7226277589797973
2304,0.4866180121898651
2308,0.22141119837760925
2312,0.11922141164541245
2316,0.10705596208572388
2320,0.06812652200460434
2324,0.06082725152373314
2328,0.04622871056199074
2332,0.04136253148317337
2336,0.0
2340,0.009732360020279884
2344,0.017031630501151085
2348,0.03406326100230217
2352,0.04866180196404457
2356,0.08272506296634674
2360,0.0729926973581314
2364,0.09245742112398148
2368,0.09732360392808914
2372,0.1167883202433586
2376,0.10462287068367004
2380,0.12165450304746628
2384,0.12165450304746628
2388,0.15328466892242432
2392,0.16545012593269348
2396,0.1873479336500168
2400,0.1751824766397476
2404,0.1897810250520706
2408,0.1751824766397476
2412,0.16788321733474731
2416,0.16301703453063965
2420,0.1873479336500168
2424,0.20194646716117856
2428,0.22871045768260956
2432,0.24087591469287872
2436,0.2725060880184173
2440,0.24330900609493253
2444,0.26520681381225586
2448,0.2457420974969864
2452,0.2530413568019867
2456,0.2165450155735016
2460,0.2335766404867172
2464,0.20681264996528623
2468,0.2092457413673401
2472,0.1970802992582321
2476,0.21167883276939392
2480,0.18491484224796292
2484,0.1751824766397476
2488,0.18004865944385529
2492,0.1873479336500168
2496,0.17761556804180145
2500,0.19464720785617828
2504,0.1873479336500168
2508,0.21411192417144773
2512,0.20681264996528623
2516,0.22141119837760925
2520,0.20681264996528623
2524,0.21411192417144773
2528,0.2335766404867172
2532,0.2944038808345794
2536,0.3479318618774414
2540,0.43552312254905695
2544,0.6496350169181824
2548,0.885644793510437
2552,0.9878345727920531
2556,1.0
2560,0.8029196858406067
2564,0.5133820176124573
2568,0.21167883276939392
2572,0.09245742112398148
2576,0.0656934306025505
2580,0.06326033920049667
2584,0.04136253148317337
2588,0.04622871056199074
2592,0.03406326100230217
2596,0.04136253148317337
2600,0.03163016960024834
2604,0.0437956191599369
2608,0.03163016960024834
2612,0.0364963486790657
2616,0.029197080060839653
2620,0.03406326100230217
2624,0.017031630501151085
2624,0.7883211970329284
2628,0.7226277589797973
2632,0.4866180121898651
2636,0.22141119837760925
2640,0.11922141164541245
2644,0.10705596208572388
2648,0.06812652200460434
2652,0.06082725152373314
2656,0.04622871056199074
2660,0.04136253148317337
2664,0.0
2668,0.009732360020279884
2672,0.017031630501151085
2676,0.03406326100230217
2680,0.04866180196404457
2684,0.08272506296634674
2688,0.0729926973581314
2692,0.09245742112398148
2696,0.09732360392808914
2700,0.1167883202433586
2704,0.10462287068367004
2708,0.12165450304746628
2712,0.12165450304746628
2716,0.15328466892242432
2720,0.16545012593269348
2724,0.1873479336500168
2728,0.1751824766397476
2732,0.1897810250520706
2736,0.1751824766397476
2740,0.16788321733474731
2744,0.16301703453063965
2748,0.1873479336500168
2752,0.20194646716117856
2756,0.22871045768260956
2760,0.24087591469287872
2764,0.2725060880184173
2768,0.24330900609493253
2772,0.26520681381225586
2776,0.2457420974969864
2780,0.2530413568019867
2784,0.2165450155735016
2788,0.2335766404867172
2792,0.20681264996528623
2796,0.2092457413673401
2800,0.1970802992582321
2804,0.21167883276939392
2808,0.18491484224796292
2812,0.1751824766397476
2816,0.18004865944385529
2820,0.1873479336500168
2824,0.17761556804180145
2828,0.19464720785617828
2832,0.1873479336500168
2836,0.21411192417144773
2840,0.20681264996528623
2844,0.22141119837760925
2848,0.20681264996528623
2852,0.21411192417144773
2856,0.2335766404867172
2860,0.2944038808345794
2864,0.3479318618774414
2868,0.43552312254905695
2872,0.6496350169181824
2876,0.885644793510437
2880,0.9878345727920531
2884,1.0
2888,0.8029196858406067
2892,0.5133820176124573
2896,0.21167883276939392
2900,0.09245742112398148
2904,0.0656934306025505
2908,0.06326033920049667
2912,0.04136253148317337
2916,0.04622871056199074
2920,0.03406326100230217
2924,0.04136253148317337
2928,0.03163016960024834
2932,0.0437956191599369
2936,0.03163016960024834
2940,0.0364963486790657
2944,0.029197080060839653
2948,0.03406326100230217
2952,0.017031630501151085
2952,0.7883211970329284
2956,0.7226277589797973
2960,0.4866180121898651
2964,0.22141119837760925
2968,0.11922141164541245
2972,0.10705596208572388
2976,0.06812652200460434
2980,0.06082725152373314
2984,0.04622871056199074
2988,0.04136253148317337
2992,0.0
2996,0.009732360020279884
3000,0.017031630501151085
3004,0.03406326100230217
3008,0.04866180196404457
3012,0.08272506296634674
3016,0.0729926973581314
3020,0.09245742112398148
3024,0.09732360392808914
3028,0.1167883202433586
3032,0.10462287068367004
3036,0.12165450304746628
3040,0.12165450304746628
3044,0.15328466892242432
3048,0.16545012593269348
3052,0.1873479336500168
3056,0.1751824766397476
3060,0.1897810250520706
3064,0.1751824766397476
3068,0.16788321733474731
3072,0.16301703453063965
3076,0.1873479336500168
3080,0.20194646716117856
3084,0.22871045768260956
3088,0.24087591469287872
3092,0.2725060880184173
3096,0.24330900609493253
3100,0.26520681381225586
3104,0.2457420974969864
3108,0.2530413568019867
3112,0.2165450155735016
3116,0.2335766404867172
3120,0.20681264996528623
3124,0.2092457413673401
3128,0.1970802992582321
3132,0.21167883276939392
3136,0.18491484224796292
3140,0.1751824766397476
3144,0.18004865944385529
3148,0.1873479336500168
3152,0.17761556804180145
3156,0.19464720785617828
3160,0.1873479336500168
3164,0.21411192417144773
3168,0.20681264996528623
3172,0.22141119837760925
3176,0.20681264996528623
3180,0.21411192417144773
3184,0.2335766404867172
3188,0.2944038808345794
3192,0.3479318618774414
3196,0.43552312254905695
3200,0.6496350169181824
3204,0.885644793510437
3208,0.9878345727920531
3212,1.0
3216,0.8029196858406067
3220,0.5133820176124573
3224,0.21167883276939392
3228,0.09245742112398148
3232,0.0656934306025505
3236,0.06326033920049667
3240,0.04136253148317337
3244,0.04622871056199074
3248,0.03406326100230217
3252,0.04136253148317337
3256,0.03163016960024834
3260,0.0437956191599369
3264,0.03163016960024834
3268,0.0364963486790657
3272,0.029197080060839653
3276,0.03406326100230217
3280,0.017031630501151085
3280,0.7883211970329284
3284,0.7226277589797973
3288,0.4866180121898651
3292,0.22141119837760925
3296,0.11922141164541245
3300,0.10705596208572388
3304,0.06812652200460434
3308,0.06082725152373314
3312,0.04622871056199074
3316,0.04136253148317337
3320,0.0
3324,0.009732360020279884
3328,0.017031630501151085
3332,0.03406326100230217
3336,0.04866180196404457
3340,0.08272506296634674
3344,0.0729926973581314
3348,0.09245742112398148
3352,0.09732360392808914
3356,0.1167883202433586
3360,0.10462287068367004
3364,0.12165450304746628
3368,0.12165450304746628
3372,0.15328466892242432
3376,0.16545012593269348
3380,0.1873479336500168
3384,0.1751824766397476
3388,0.1897810250520706
3392,0.1751824766397476
3396,0.16788321733474731
3400,0.16301703453063965
3404,0.1873479336500168
3408,0.20194646716117856
3412,0.22871045768260956
3416,0.24087591469287872
3420,0.2725060880184173
3424,0.24330900609493253
3428,0.26520681381225586
3432,0.2457420974969864
3436,0.2530413568019867
3440,0.2165450155735016
3444,0.2335766404867172
3448,0.20681264996528623
3452,0.2092457413673401
3456,0.1970802992582321
3460,0.21167883276939392
3464,0.18491484224796292
3468,0.1751824766397476
3472,0.18004865944385529
3476,0.1873479336500168
3480,0.17761556804180145
3484,0.19464720785617828
3488,0.1873479336500168
3492,0.21411192417144773
3496,0.20681264996528623
3500,0.22141119837760925
3504,0.20681264996528623
3508,0.21411192417144773
3512,0.2335766404867172
3516,0.2944038808345794
3520,0.3479318618774414
3524,0.43552312254905695
3528,0.6496350169181824
3532,0.885644793510437
3536,0.9878345727920531
3540,1.0
3544,0.8029196858406067
3548,0.5133820176124573
3552,0.21167883276939392
3556,0.09245742112398148
3560,0.0656934306025505
3564,0.06326033920049667
3568,0.04136253148317337
3572,0.04622871056199074
3576,0.03406326100230217
3580,0.04136253148317337
3584,0.03163016960024834
3588,0.0437956191599369
3592,0.03163016960024834
3596,0.0364963486790657
3600,0.029197080060839653
3604,0.03406326100230217
3608,0.017031630501151085
3608,0.7883211970329284
3612,0.7226277589797973
3616,0.4866180121898651
3620,0.22141119837760925
3624,0.11922141164541245
3628,0.10705596208572388
3632,0.06812652200460434
3636,0.06082725152373314
3640,0.04622871056199074
3644,0.04136253148317337
3648,0.0
3652,0.009732360020279884
3656,0.017031630501151085
3660,0.03406326100230217
3664,0.04866180196404457
3668,0.08272506296634674
3672,0.0729926973581314
3676,0.09245742112398148
3680,0.09732360392808914
3684,0.1167883202433586
3688,0.10462287068367004
3692,0.12165450304746628
3696,0.12165450304746628
3700,0.15328466892242432
3704,0.16545012593269348
3708,0.1873479336500168
3712,0.1751824766397476
3716,0.1897810250520706
3720,0.1751824766397476
3724,0.16788321733474731
3728,0.16301703453063965
3732,0.1873479336500168
3736,0.20194646716117856
3740,0.22871045768260956
3744,0.24087591469287872
3748,0.2725060880184173
3752,0.24330900609493253
3756,0.26520681381225586
3760,0.2457420974969864
3764,0.2530413568019867
3768,0.2165450155735016
3772,0.2335766404867172
3776,0.20681264996528623
3780,0.2092457413673401
3784,0.1970802992582321
3788,0.21167883276939392
3792,0.18491484224796292
3796,0.1751824766397476
3800,0.18004865944385529
3804,0.1873479336500168
3808,0.17761556804180145
3812,0.19464720785617828
3816,0.1873479336500168
3820,0.21411192417144773
3824,0.20681264996528623
3828,0.22141119837760925
3832,0.20681264996528623
3836,0.21411192417144773
3840,0.2335766404867172
3844,0.2944038808345794
3848,0.3479318618774414
3852,0.43552312254905695
3856,0.6496350169181824
3860,0.885644793510437
3864,0.9878345727920531
3868,1.0
3872,0.8029196858406067
3876,0.5133820176124573
3880,0.21167883276939392
3884,0.09245742112398148
3888,0.0656934306025505
3892,0.06326033920049667
3896,0.04136253148317337
3900,0.04622871056199074
3904,0.03406326100230217
3908,0.04136253148317337
3912,0.03163016960024834
3916,0.0437956191599369
3920,0.03163016960024834
3924,0.0364963486790657
3928,0.029197080060839653
3932,0.03406326100230217
3936,0.017031630501151085
3936,0.7883211970329284
3940,0.7226277589797973
3944,0.4866180121898651
3948,0.22141119837760925
3952,0.11922141164541245
3956,0.10705596208572388
3960,0.06812652200460434
3964,0.06082725152373314
3968,0.04622871056199074
3972,0.04136253148317337
3976,0.0
3980,0.009732360020279884
3984,0.017031630501151085
3988,0.03406326100230217
3992,0.04866180196404457
3996,0.08272506296634674
4000,0.0729926973581314
4004,0.09245742112398148
4008,0.09732360392808914
4012,0.1167883202433586
4016,0.10462287068367004
4020,0.12165450304746628
4024,0.12165450304746628
4028,0.15328466892242432
4032,0.16545012593269348
4036,0.1873479336500168
4040,0.1751824766397476
4044,0.1897810250520706
4048,0.1751824766397476
4052,0.16788321733474731
4056,0.16301703453063965
4060,0.1873479336500168
4064,0.20194646716117856
4068,0.22871045768260956
4072,0.24087591469287872
4076,0.2725060880184173
4080,0.24330900609493253
4084,0.26520681381225586
4088,0.2457420974969864
4092,0.2530413568019867
4096,0.2165450155735016
4100,0.2335766404867172
4104,0.20681264996528623
4108,0.2092457413673401
4112,0.1970802992582321
4116,0.21167883276939392
4120,0.18491484224796292
4124,0.1751824766397476
4128,0.18004865944385529
4132,0.1873479336500168
4136,0.17761556804180145
4140,0.19464720785617828
4144,0.1873479336500168
4148,0.21411192417144773
4152,0.20681264996528623
4156,0.22141119837760925
4160,0.20681264996528623
4164,0.21411192417144773
4168,0.2335766404867172
4172,0.2944038808345794
4176,0.3479318618774414
4180,0.43552312254905695
4184,0.6496350169181824
4188,0.885644793510437
4192,0.9878345727920531
4196,1.0
4200,0.8029196858406067
4204,0.5133820176124573
4208,0.21167883276939392
4212,0.09245742112398148
4216,0.0656934306025505
4220,0.06326033920049667
4224,0.04136253148317337
4228,0.04622871056199074
4232,0.03406326100230217
4236,0.04136253148317337
4240,0.03163016960024834
4244,0.0437956191599369
4248,0.03163016960024834
4252,0.0364963486790657
4256,0.029197080060839653
4260,0.03406326100230217
4264,0.017031630501151085
4264,0.7883211970329284
4268,0.7226277589797973
4272,0.4866180121898651
4276,0.22141119837760925
4280,0.11922141164541245
4284,0.10705596208572388
4288,0.06812652200460434
4292,0.06082725152373314
4296,0.04622871056199074
4300,0.04136253148317337
4304,0.0
4308,0.009732360020279884
4312,0.017031630501151085
4316,0.03406326100230217
4320,0.04866180196404457
4324,0.08272506296634674
4328,0.0729926973581314
4332,0.09245742112398148
4336,0.09732360392808914
4340,0.1167883202433586
4344,0.10462287068367004
4348,0.12165450304746628
4352,0.12165450304746628
4356,0.15328466892242432
4360,0.16545012593269348
4364,0.1873479336500168
4368,0.1751824766397476
4372,0.1897810250520706
4376,0.1751824766397476
4380,0.16788321733474731
4384,0.16301703453063965
4388,0.1873479336500168
4392,0.20194646716117856
4396,0.22871045768260956
4400,0.24087591469287872
4404,0.2725060880184173
4408,0.24330900609493253
4412,0.26520681381225586
4416,0.2457420974969864
4420,0.2530413568019867
4424,0.2165450155735016
4428,0.2335766404867172
4432,0.20681264996528623
4436,0.2092457413673401
4440,0.1970802992582321
4444,0.21167883276939392
4448,0.18491484224796292
4452,0.1751824766397476
4456,0.18004865944385529
4460,0.1873479336500168
4464,0.17761556804180145
4468,0.19464720785617828
4472,0.1873479336500168
4476,0.21411192417144773
4480,0.20681264996528623
4484,0.22141119837760925
4488,0.20681264996528623
4492,0.21411192417144773
4496,0.2335766404867172
4500,0.2944038808345794
4504,0.3479318618774414
4508,0.43552312254905695
4512,0.6496350169181824
4516,0.885644793510437
4520,0.9878345727920531
4524,1.0
4528,0.8029196858406067
4532,0.5133820176124573
4536,0.21167883276939392
4540,0.09245742112398148
4544,0.0656934306025505
4548,0.06326033920049667
4552,0.04136253148317337
4556,0.04622871056199074
4560,0.03406326100230217
4564,0.04136253148317337
4568,0.03163016960024834
4572,0.0437956191599369
4576,0.03163016960024834
4580,0.0364963486790657
4584,0.029197080060839653
4588,0.03406326100230217
4592,0.017031630501151085
4592,0.7883211970329284
4596,0.7226277589797973
4600,0.4866180121898651
4604,0.22141119837760925
4608,0.11922141164541245
4612,0.10705596208572388
4616,0.06812652200460434
4620,0.06082725152373314
4624,0.04622871056199074
4628,0.04136253148317337
4632,0.0
4636,0.009732360020279884
4640,0.017031630501151085
4644,0.03406326100230217
4648,0.04866180196404457
4652,0.08272506296634674
4656,0.0729926973581314
4660,0.09245742112398148
4664,0.09732360392808914
4668,0.1167883202433586
4672,0.10462287068367004
4676,0.12165450304746628
4680,0.12165450304746628
4684,0.15328466892242432
4688,0.16545012593269348
4692,0.1873479336500168
4696,0.1751824766397476
4700,0.1897810250520706
4704,0.1751824766397476
4708,0.16788321733474731
4712,0.16301703453063965
4716,0.1873479336500168
4720,0.20194646716117856
4724,0.22871045768260956
4728,0.24087591469287872
4732,0.2725060880184173
4736,0.24330900609493253
4740,0.26520681381225586
4744,0.2457420974969864
4748,0.2530413568019867
4752,0.2165450155735016
4756,0.2335766404867172
4760,0.20681264996528623
4764,0.2092457413673401
4768,0.1970802992582321
4772,0.21167883276939392
4776,0.18491484224796292
4780,0.1751824766397476
4784,0.18004865944385529
4788,0.1873479336500168
4792,0.17761556804180145
4796,0.19464720785617828
4800,0.1873479336500168
4804,0.21411192417144773
4808,0.20681264996528623
4812,0.22141119837760925
4816,0.20681264996528623
4820,0.21411192417144773
4824,0.2335766404867172
4828,0.2944038808345794
4832,0.3479318618774414
4836,0.43552312254905695
4840,0.6496350169181824
4844,0.885644793510437
4848,0.9878345727920531
4852,1.0
4856,0.8029196858406067
4860,0.5133820176124573
4864,0.21167883276939392
4868,0.09245742112398148
4872,0.0656934306025505
4876,0.06326033920049667
4880,0.04136253148317337
4884,0.04622871056199074
4888,0.03406326100230217
4892,0.04136253148317337
4896,0.03163016960024834
4900,0.0437956191599369
4904,0.03163016960024834
4908,0.0364963486790657
4912,0.029197080060839653
4916,0.03406326100230217
4920,0.017031630501151085
4920,0.7883211970329284
4924,0.7226277589797973
4928,0.4866180121898651
4932,0.22141119837760925
4936,0.11922141164541245
4940,0.10705596208572388
4944,0.06812652200460434
4948,0.06082725152373314
4952,0.04622871056199074
4956,0.04136253148317337
4960,0.0
4964,0.009732360020279884
4968,0.017031630501151085
4972,0.03406326100230217
4976,0.04866180196404457
4980,0.08272506296634674
4984,0.0729926973581314
4988,0.09245742112398148
4992,0.09732360392808914
4996,0.1167883202433586
5000,0.10462287068367004
5004,0.12165450304746628
5008,0.12165450304746628
5012,0.15328466892242432
5016,0.16545012593269348
5020,0.1873479336500168
5024,0.1751824766397476
5028,0.1897810250520706
5032,0.1751824766397476
5036,0.16788321733474731
5040,0.16301703453063965
5044,0.1873479336500168
5048,0.20194646716117856
5052,0.22871045768260956
5056,0.24087591469287872
5060,0.2725060880184173
5064,0.24330900609493253
5068,0.26520681381225586
5072,0.2457420974969864
5076,0.2530413568019867
5080,0.2165450155735016
5084,0.2335766404867172
5088,0.20681264996528623
5092,0.2092457413673401
5096,0.1970802992582321
5100,0.21167883276939392
5104,0.18491484224796292
5108,0.1751824766397476
5112,0.18004865944385529
5116,0.1873479336500168
5120,0.17761556804180145
5124,0.19464720785617828
5128,0.1873479336500168
5132,0.21411192417144773
5136,0.20681264996528623
5140,0.22141119837760925
5144,0.20681264996528623
5148,0.21411192417144773
5152,0.2335766404867172
5156,0.2944038808345794
5160,0.3479318618774414
5164,0.43552312254905695
5168,0.6496350169181824
5172,0.885644793510437
5176,0.9878345727920531
5180,1.0
5184,0.8029196858406067
5188,0.5133820176124573
5192,0.21167883276939392
5196,0.09245742112398148
5200,0.0656934306025505
5204,0.06326033920049667
5208,0.04136253148317337
5212,0.04622871056199074
5216,0.03406326100230217
5220,0.04136253148317337
5224,0.03163016960024834
5228,0.0437956191599369
5232,0.03163016960024834
5236,0.0364963486790657
5240,0.029197080060839653
5244,0.03406326100230217
5248,0.017031630501151085
5248,0.7883211970329284
5252,0.7226277589797973
5256,0.4866180121898651
5260,0.22141119837760925
5264,0.11922141164541245
5268,0.10705596208572388
5272,0.06812652200460434
5276,0.06082725152373314
5280,0.04622871056199074
5284,0.04136253148317337
5288,0.0
5292,0.009732360020279884
5296,0.017031630501151085
5300,0.03406326100230217
5304,0.04866180196404457
5308,0.08272506296634674
5312,0.0729926973581314
5316,0.09245742112398148
5320,0.09732360392808914
5324,0.1167883202433586
5328,0.10462287068367004
5332,0.12165450304746628
5336,0.12165450304746628
5340,0.15328466892242432
5344,0.16545012593269348
5348,0.1873479336500168
5352,0.1751824766397476
5356,0.1897810250520706
5360,0.1751824766397476
5364,0.16788321733474731
5368,0.16301703453063965
5372,0.1873479336500168
5376,0.20194646716117856
5380,0.22871045768260956
5384,0.24087591469287872
5388,0.2725060880184173
5392,0.24330900609493253
5396,0.26520681381225586
5400,0.2457420974969864
5404,0.2530413568019867
5408,0.2165450155735016
5412,0.2335766404867172
5416,0.20681264996528623
5420,0.2092457413673401
5424,0.1970802992582321
5428,0.21167883276939392
5432,0.18491484224796292
5436,0.1751824766397476
5440,0.18004865944385529
5444,0.1873479336500168
5448,0.17761556804180145
5452,0.19464720785617828
5456,0.1873479336500168
5460,0.21411192417144773
5464,0.20681264996528623
5468,0.22141119837760925
5472,0.20681264996528623
5476,0.21411192417144773
5480,0.2335766404867172
5484,0.2944038808345794
5488,0.3479318618774414
5492,0.43552312254905695
5496,0.6496350169181824
5500,0.885644793510437
5504,0.9878345727920531
5508,1.0
5512,0.8029196858406067
5516,0.5133820176124573
5520,0.21167883276939392
5524,0.09245742112398148
5528,0.0656934306025505
5532,0.06326033920049667
5536,0.04136253148317337
5540,0.04622871056199074
5544,0.03406326100230217
5548,0.04136253148317337
5552,0.03163016960024834
5556,0.0437956191599369
5560,0.03163016960024834
5564,0.0364963486790657
5568,0.029197080060839653
5572,0.03406326100230217
5576,0.017031630501151085
5576,0.7883211970329284
5580,0.7226277589797973
5584,0.4866180121898651
5588,0.22141119837760925
5592,0.11922141164541245
5596,0.10705596208572388
5600,0.06812652200460434
5604,0.06082725152373314
5608,0.04622871056199074
5612,0.04136253148317337
5616,0.0
5620,0.009732360020279884
5624,0.017031630501151085
5628,0.03406326100230217
5632,0.04866180196404457
5636,0.08272506296634674
5640,0.0729926973581314
5644,0.09245742112398148
5648,0.09732360392808914
5652,0.1167883202433586
5656,0.10462287068367004
5660,0.12165450304746628
5664,0.12165450304746628
5668,0.15328466892242432
5672,0.16545012593269348
5676,0.1873479336500168
5680,0.1751824766397476
5684,0.1897810250520706
5688,0.1751824766397476
5692,0.16788321733474731
5696,0.16301703453063965
5700,0.1873479336500168
5704,0.20194646716117856
5708,0.22871045768260956
5712,0.24087591469287872
5716,0.2725060880184173
5720,0.24330900609493253
5724,0.26520681381225586
5728,0.2457420974969864
5732,0.2530413568019867
5736,0.2165450155735016
5740,0.2335766404867172
5744,0.20681264996528623
5748,0.2092457413673401
5752,0.1970802992582321
5756,0.21167883276939392
5760,0.18491484224796292
5764,0.1751824766397476
5768,0.18004865944385529
5772,0.1873479336500168
5776,0.17761556804180145
5780,0.19464720785617828
5784,0.1873479336500168
5788,0.21411192417144773
5792,0.20681264996528623
5796,0.22141119837760925
5800,0.20681264996528623
5804,0.21411192417144773
5808,0.2335766404867172
5812,0.2944038808345794
5816,0.3479318618774414
5820,0.43552312254905695
5824,0.6496350169181824
5828,0.885644793510437
5832,0.9878345727920531
5836,1.0
5840,0.8029196858406067
5844,0.5133820176124573
5848,0.21167883276939392
5852,0.09245742112398148
5856,0.0656934306025505
5860,0.06326033920049667
5864,0.04136253148317337
5868,0.04622871056199074
5872,0.03406326100230217
5876,0.04136253148317337
5880,0.03163016960024834
5884,0.0437956191599369
5888,0.03163016960024834
5892,0.0364963486790657
5896,0.029197080060839653
5900,0.03406326100230217
5904,0.017031630501151085
5904,0.7883211970329284
5908,0.7226277589797973
5912,0.4866180121898651
5916,0.22141119837760925
5920,0.11922141164541245
5924,0.10705596208572388
5928,0.06812652200460434
5932,0.06082725152373314
5936,0.04622871056199074
5940,0.04136253148317337
5944,0.0
5948,0.009732360020279884
5952,0.017031630501151085
5956,0.03406326100230217
5960,0.04866180196404457
5964,0.08272506296634674
5968,0.0729926973581314
5972,0.09245742112398148
5976,0.09732360392808914
5980,0.1167883202433586
5984,0.10462287068367004
5988,0.12165450304746628
5992,0.12165450304746628
5996,0.15328466892242432
6000,0.16545012593269348
6004,0.1873479336500168
6008,0.1751824766397476
6012,0.1897810250520706
6016,0.1751824766397476
6020,0.16788321733474731
6024,0.16301703453063965
6028,0.1873479336500168
6032,0.20194646716117856
6036,0.22871045768260956
6040,0.24087591469287872
6044,0.2725060880184173
6048,0.24330900609493253
6052,0.26520681381225586
6056,0.2457420974969864
6060,0.2530413568019867
6064,0.2165450155735016
6068,0.2335766404867172
6072,0.20681264996528623
6076,0.2092457413673401
6080,0.1970802992582321
6084,0.21167883276939392
6088,0.18491484224796292
6092,0.1751824766397476
6096,0.18004865944385529
6100,0.1873479336500168
6104,0.17761556804180145
6108,0.19464720785617828
6112,0.1873479336500168
6116,0.21411192417144773
6120,0.20681264996528623
6124,0.22141119837760925
6128,0.20681264996528623
6132,0.21411192417144773
6136,0.2335766404867172
6140,0.2944038808345794
6144,0.3479318618774414
6148,0.43552312254905695
6152,0.6496350169181824
6156,0.885644793510437
6160,0.9878345727920531
6164,1.0
6168,0.8029196858406067
6172,0.5133820176124573
6176,0.21167883276939392
6180,0.09245742112398148
6184,0.0656934306025505
6188,0.06326033920049667
6192,0.04136253148317337
6196,0.04622871056199074
6200,0.03406326100230217
6204,0.04136253148317337
6208,0.03163016960024834
6212,0.0437956191599369
6216,0.03163016960024834
6220,0.0364963486790657
6224,0.029197080060839653
6228,0.03406326100230217
6232,0.017031630501151085
6232,0.7883211970329284
6236,0.7226277589797973
6240,0.4866180121898651
6244,0.22141119837760925
6248,0.11922141164541245
6252,0.10705596208572388
6256,0.06812652200460434
6260,0.06082725152373314
6264,0.04622871056199074
6268,0.04136253148317337
6272,0.0
6276,0.009732360020279884
6280,0.017031630501151085
6284,0.03406326100230217
6288,0.04866180196404457
6292,0.08272506296634674
6296,0.0729926973581314
6300,0.09245742112398148
6304,0.09732360392808914
6308,0.1167883202433586
6312,0.10462287068367004
6316,0.12165450304746628
6320,0.12165450304746628
6324,0.15328466892242432
6328,0.16545012593269348
6332,0.1873479336500168
6336,0.1751824766397476
6340,0.1897810250520706
6344,0.1751824766397476
6348,0.16788321733474731
6352,0.16301703453063965
6356,0.1873479336500168
6360,0.20194646716117856
6364,0.22871045768260956
6368,0.24087591469287872
6372,0.2725060880184173
6376,0.24330900609493253
6380,0.26520681381225586
6384,0.2457420974969864
6388,0.2530413568019867
6392,0.2165450155735016
6396,0.2335766404867172
6400,0.20681264996528623
6404,0.2092457413673401
6408,0.1970802992582321
6412,0.21167883276939392
6416,0.18491484224796292
6420,0.1751824766397476
6424,0.18004865944385529
6428,0.1873479336500168
6432,0.17761556804180145
6436,0.19464720785617828
6440,0.1873479336500168
6444,0.21411192417144773
6448,0.20681264996528623
6452,0.22141119837760925
6456,0.20681264996528623
6460,0.21411192417144773
6464,0.2335766404867172
6468,0.2944038808345794
6472,0.3479318618774414
6476,0.43552312254905695
6480,0.6496350169181824
6484,0.885644793510437
6488,0.9878345727920531
6492,1.0
6496,0.8029196858406067
6500,0.5133820176124573
6504,0.21167883276939392
6508,0.09245742112398148
6512,0.0656934306025505
6516,0.06326033920049667
6520,0.04136253148317337
6524,0.04622871056199074
6528,0.03406326100230217
6532,0.04136253148317337
6536,0.03163016960024834
6540,0.0437956191599369
6544,0.03163016960024834
6548,0.0364963486790657
6552,0.029197080060839653
6556,0.03406326100230217
6560,0.017031630501151085
6560,0.7883211970329284
6564,0.7226277589797973
6568,0.4866180121898651
6572,0.22141119837760925
6576,0.11922141164541245
6580,0.10705596208572388
6584,0.06812652200460434
6588,0.06082725152373314
6592,0.04622871056199074
6596,0.04136253148317337
6600,0.0
6604,0.009732360020279884
6608,0.017031630501151085
6612,0.03406326100230217
6616,0.04866180196404457
6620,0.08272506296634674
6624,0.0729926973581314
6628,0.09245742112398148
6632,0.09732360392808914
6636,0.1167883202433586
6640,0.10462287068367004
6644,0.12165450304746628
6648,0.12165450304746628
6652,0.15328466892242432
6656,0.16545012593269348
6660,0.1873479336500168
6664,0.1751824766397476
6668,0.1897810250520706
6672,0.1751824766397476
6676,0.16788321733474731
6680,0.16301703453063965
6684,0.1873479336500168
6688,0.20194646716117856
6692,0.22871045768260956
6696,0.24087591469287872
6700,0.2725060880184173
6704,0.24330900609493253
6708,0.26520681381225586
6712,0.2457420974969864
6716,0.2530413568019867
6720,0.2165450155735016
6724,0.2335766404867172
6728,0.20681264996528623
6732,0.2092457413673401
6736,0.1970802992582321
6740,0.21167883276939392
6744,0.18491484224796292
6748,0.1751824766397476
6752,0.18004865944385529
6756,0.1873479336500168
6760,0.17761556804180145
6764,0.19464720785617828
6768,0.1873479336500168
6772,0.21411192417144773
6776,0.20681264996528623
6780,0.22141119837760925
6784,0.20681264996528623
6788,0.21411192417144773
6792,0.2335766404867172
6796,0.2944038808345794
6800,0.3479318618774414
6804,0.43552312254905695
6808,0.6496350169181824
6812,0.885644793510437
6816,0.9878345727920531
6820,1.0
6824,0.8029196858406067
6828,0.5133820176124573
6832,0.21167883276939392
6836,0.09245742112398148
6840,0.0656934306025505
6844,0.06326033920049667
6848,0.04136253148317337
6852,0.04622871056199074
6856,0.03406326100230217
6860,0.04136253148317337
6864,0.03163016960024834
6868,0.0437956191599369
6872,0.03163016960024834
6876,0.0364963486790657
6880,0.029197080060839653
6884,0.03406326100230217
6888,0.017031630501151085
6888,0.7883211970329284
6892,0.7226277589797973
6896,0.4866180121898651
6900,0.22141119837760925
6904,0.11922141164541245
6908,0.10705596208572388
6912,0.06812652200460434
6916,0.06082725152373314
6920,0.04622871056199074
6924,0.04136253148317337
6928,0.0
6932,0.009732360020279884
6936,0.017031630501151085
6940,0.03406326100230217
6944,0.04866180196404457
6948,0.08272506296634674
6952,0.0729926973581314
6956,0.09245742112398148
6960,0.09732360392808914
6964,0.1167883202433586
6968,0.10462287068367004
6972,0.12165450304746628
6976,0.12165450304746628
6980,0.15328466892242432
6984,0.16545012593269348
6988,0.1873479336500168
6992,0.1751824766397476
6996,0.1897810250520706
7000,0.1751824766397476
7004,0.16788321733474731
7008,0.16301703453063965
7012,0.1873479336500168
7016,0.20194646716117856
7020,0.22871045768260956
7024,0.24087591469287872
7028,0.2725060880184173
7032,0.24330900609493253
7036,0.26520681381225586
7040,0.2457420974969864
7044,0.2530413568019867
7048,0.2165450155735016
7052,0.2335766404867172
7056,0.20681264996528623
7060,0.2092457413673401
7064,0.1970802992582321
7068,0.21167883276939392
7072,0.18491484224796292
7076,0.1751824766397476
7080,0.18004865944385529
7084,0.1873479336500168
7088,0.17761556804180145
7092,0.19464720785617828
7096,0.1873479336500168
7100,0.21411192417144773
7104,0.20681264996528623
7108,0.22141119837760925
7112,0.20681264996528623
7116,0.21411192417144773
7120,0.2335766404867172
7124,0.2944038808345794
7128,0.3479318618774414
7132,0.43552312254905695
7136,0.6496350169181824
7140,0.885644793510437
7144,0.9878345727920531
7148,1.0
7152,0.8029196858406067
7156,0.5133820176124573
7160,0.21167883276939392
7164,0.09245742112398148
7168,0.0656934306025505
7172,0.06326033920049667
7176,0.04136253148317337
7180,0.04622871056199074
7184,0.03406326100230217
7188,0.04136253148317337
7192,0.03163016960024834
7196,0.0437956191599369
7200,0.03163016960024834
7204,0.0364963486790657
7208,0.029197080060839653
7212,0.03406326100230217
7216,0.017031630501151085
7216,0.7883211970329284
7220,0.7226277589797973
7224,0.4866180121898651
7228,0.22141119837760925
7232,0.11922141164541245
7236,0.10705596208572388
7240,0.06812652200460434
7244,0.06082725152373314
7248,0.04622871056199074
7252,0.04136253148317337
7256,0.0
7260,0.009732360020279884
7264,0.017031630501151085
7268,0.03406326100230217
7272,0.04866180196404457
7276,0.08272506296634674
7280,0.0729926973581314
7284,0.09245742112398148
7288,0.09732360392808914
7292,0.1167883202433586
7296,0.10462287068367004
7300,0.12165450304746628
7304,0.12165450304746628
7308,0.15328466892242432
7312,0.16545012593269348
7316,0.1873479336500168
7320,0.1751824766397476
7324,0.1897810250520706
7328,0.1751824766397476
7332,0.16788321733474731
7336,0.16301703453063965
7340,0.1873479336500168
7344,0.20194646716117856
7348,0.22871045768260956
7352,0.24087591469287872
7356,0.2725060880184173
7360,0.24330900609493253
7364,0.26520681381225586
7368,0.2457420974969864
7372,0.2530413568019867
7376,0.2165450155735016
7380,0.2335766404867172
7384,0.20681264996528623
7388,0.2092457413673401
7392,0.1970802992582321
7396,0.21167883276939392
7400,0.18491484224796292
7404,0.1751824766397476
7408,0.18004865944385529
7412,0.1873479336500168
7416,0.17761556804180145
7420,0.19464720785617828
7424,0.1873479336500168
7428,0.21411192417144773
7432,0.20681264996528623
7436,0.22141119837760925
7440,0.20681264996528623
7444,0.21411192417144773
7448,0.2335766404867172
7452,0.2944038808345794
7456,0.3479318618774414
7460,0.43552312254905695
7464,0.6496350169181824
7468,0.885644793510437
7472,0.9878345727920531
7476,1.0
7480,0.8029196858406067
7484,0.5133820176124573
7488,0.21167883276939392
7492,0.09245742112398148
7496,0.0656934306025505
7500,0.06326033920049667
7504,0.04136253148317337
7508,0.04622871056199074
7512,0.03406326100230217
7516,0.04136253148317337
7520,0.03163016960024834
7524,0.0437956191599369
7528,0.03163016960024834
7532,0.0364963486790657
7536,0.029197080060839653
7540,0.03406326100230217
7544,0.017031630501151085
7544,0.7883211970329284
7548,0.7226277589797973
7552,0.4866180121898651
7556,0.22141119837760925
7560,0.11922141164541245
7564,0.10705596208572388
7568,0.06812652200460434
7572,0.06082725152373314
7576,0.04622871056199074
7580,0.04136253148317337
7584,0.0
7588,0.009732360020279884
7592,0.017031630501151085
7596,0.03406326100230217
7600,0.04866180196404457
7604,0.08272506296634674
7608,0.0729926973581314
7612,0.09245742112398148
7616,0.09732360392808914
7620,0.1167883202433586
7624,0.10462287068367004
7628,0.12165450304746628
7632,0.12165450304746628
7636,0.15328466892242432
7640,0.16545012593269348
7644,0.1873479336500168
7648,0.1751824766397476
7652,0.1897810250520706
7656,0.1751824766397476
7660,0.16788321733474731
7664,0.16301703453063965
7668,0.1873479336500168
7672,0.20194646716117856
7676,0.22871045768260956
7680,0.24087591469287872
7684,0.2725060880184173
7688,0.24330900609493253
7692,0.26520681381225586
7696,0.2457420974969864
7700,0.2530413568019867
7704,0.2165450155735016
7708,0.2335766404867172
7712,0.20681264996528623
7716,0.2092457413673401
7720,0.1970802992582321
7724,0.21167883276939392
7728,0.18491484224796292
7732,0.1751824766397476
7736,0.18004865944385529
7740,0.1873479336500168
7744,0.17761556804180145
7748,0.19464720785617828
7752,0.1873479336500168
7756,0.21411192417144773
7760,0.20681264996528623
7764,0.22141119837760925
7768,0.20681264996528623
7772,0.21411192417144773
7776,0.2335766404867172
7780,0.2944038808345794
7784,0.3479318618774414
7788,0.43552312254905695
7792,0.6496350169181824
7796,0.885644793510437
7800,0.9878345727920531
7804,1.0
7808,0.8029196858406067
7812,0.5133820176124573
7816,0.21167883276939392
7820,0.09245742112398148
7824,0.0656934306025505
7828,0.06326033920049667
7832,0.04136253148317337
7836,0.04622871056199074
7840,0.03406326100230217
7844,0.04136253148317337
7848,0.03163016960024834
7852,0.0437956191599369
7856,0.03163016960024834
7860,0.0364963486790657
7864,0.029197080060839653
7868,0.03406326100230217
7872,0.017031630501151085
