time,value
0.0,0.014620926074865332
4.0,-0.007916426090582998
8.0,-0.0029060655075948466
12.0,0.005488535152460884
16.0,0.00043754152593260525
20.0,-0.004945196572494318
24.0,0.010540016689891685
28.0,-0.0050526163775546406
32.0,0.0017982203163823978
36.0,0.00869115055518338
40.0,0.013312899936816388
44.0,-0.001296375823731434
48.0,0.008976444201850451
52.0,-0.0029402302460006164
56.0,-0.010386032413244501
60.0,-0.015142693201259922
64.0,0.002030516936155213
68.0,0.003399703372593412
72.0,-0.021980981761359722
76.0,-0.009511315471659482
80.0,-0.009230622730970235
84.0,-0.008658299418141975
88.0,-0.007727940228178283
92.0,0.009230961483784293
96.0,0.005346934691960702
100.0,0.0161209503112379
104.0,-0.0067698738072040415
108.0,0.006942643804367994
112.0,-0.016692827927946963
116.0,-9.175264146244486e-05
120.0,0.0135969890218788
124.0,0.009563249441263673
128.0,0.0014606500310233859
132.0,-0.0010435248940796008
136.0,-0.0047947311076924825
140.0,0.005653049537373241
144.0,0.004181837507998039
148.0,0.010267839120433234
152.0,-0.012166429616383896
156.0,0.017908081154271338
160.0,0.01704277397097371
164.0,-0.018634962094476133
168.0,0.010742419489649385
172.0,-0.002213726382273899
176.0,-0.00750968331511233
180.0,-0.012099592316132947
184.0,0.012966665560494257
188.0,0.00421412483553225
192.0,-0.014724074339182514
196.0,0.0201278543611439
200.0,0.01454668798384893
204.0,-0.012851063810177739
208.0,0.006572387815984354
212.0,-0.0150353278256269
216.0,0.010330414156743002
220.0,0.01773976622860255
224.0,0.018421456492333444
228.0,-0.0014273479024596793
232.0,-0.007880970397329216
236.0,8.161633209172715e-05
240.0,-0.009712974895673826
244.0,0.006785813222038391
248.0,0.006839170919624197
252.0,0.005488155186981672
256.0,0.007101587189793869
260.0,0.0028819095396887184
264.0,-0.0107615105519805
268.0,0.007110849373343381
272.0,0.010376167887966904
276.0,-0.006834808567227749
280.0,-0.012703809339171535
284.0,-0.007635771648246444
288.0,-0.02398978701057382
292.0,-0.004067654691040102
296.0,-0.0018880347896602617
300.0,0.0028036576682244517
304.0,-0.006908970627994392
308.0,0.01638797071808213
312.0,-0.019425987115128614
316.0,-0.004853908167213284
320.0,-0.007194849717588661
324.0,0.009522785200006075
328.0,-0.0007457898529583283
332.0,-0.006237034228056466
336.0,-0.01554908098404365
340.0,0.01703030231306316
344.0,-0.020593314887844365
348.0,0.00015905534409296624
352.0,0.011431409816117354
356.0,0.00587837098856413
360.0,0.009402170425760357
364.0,-0.003506154506127511
368.0,-0.008747825064360082
372.0,-0.009881861221297902
376.0,-0.00257221493469888
380.0,-0.010537515027911327
384.0,0.010375319406078267
388.0,-0.01713245794965643
392.0,0.014411160512764318
396.0,0.002606280272466248
400.0,-0.00798818271696102
404.0,0.010382467344669372
408.0,-0.0005504755152266646
412.0,-0.009588456359582873
416.0,-0.017174589434287117
420.0,-0.009765419811415769
424.0,-0.0016405232361895142
428.0,-0.005030377671869916
432.0,0.023141710942967953
436.0,0.023434642751231877
440.0,0.012571247175865888
444.0,-0.020335858430703235
448.0,0.004254770246328052
452.0,-0.013315165526159385
456.0,0.0010420511612175929
460.0,-0.003465513303057653
464.0,0.012663504173734179
468.0,0.0028850282505569168
472.0,0.003605766478380159
476.0,0.01578064899712492
480.0,0.003817922695249137
484.0,0.004735830055171805
488.0,-0.014810880955605876
492.0,-0.00672961330899952
496.0,-0.013386809558279386
500.0,-0.0015233782463985315
504.0,0.005276189343688638
508.0,0.00781369623379385
512.0,0.018380891197077868
516.0,0.017077254328438308
520.0,0.00032653965578929026
524.0,-0.01082288668894242
528.0,-0.00404670049844543
532.0,0.0029355144451237744
536.0,-0.0014458784470553247
540.0,-0.01312274752099734
544.0,0.0199446681856517
548.0,0.08195950046083636
552.0,0.11612402496309264
556.0,0.12133248846836199
560.0,0.15775842686905564
564.0,0.18100939424168253
568.0,0.21073326506590254
572.0,0.22727604214948818
576.0,0.24833413453903408
580.0,0.2594415436075053
584.0,0.26831397575159394
588.0,0.31120470517124244
592.0,0.28813211478982415
596.0,0.2832990052898814
600.0,0.2659167478178265
604.0,0.2568563039792282
608.0,0.211383774982062
612.0,0.2103289742130166
616.0,0.19042244957162707
620.0,0.17606292761845
624.0,0.12597795996388908
628.0,0.11608387049155064
632.0,0.06938613957414629
636.0,0.03959025164226093
640.0,0.002392940598545899
644.0,-0.019748422764002495
648.0,-0.009958779236241815
652.0,-0.024289526052096735
656.0,0.014013825684580932
660.0,0.01623862590493419
664.0,0.022249238161637243
668.0,0.03522066958629677
672.0,0.004143972312211271
676.0,-0.0040630434044699815
680.0,0.00031355302305214147
684.0,-0.06023827433146664
688.0,-0.08399938959570015
692.0,-0.14282911370850654
696.0,-0.18703854074585827
700.0,0.02298419670999984
704.0,0.11850721902968328
708.0,0.22951107814582422
712.0,0.3165911187122926
716.0,0.4492504118081932
720.0,0.5453606887131136
724.0,0.6596073921878332
728.0,0.7639752925632806
732.0,0.8872526520496936
736.0,0.9795757521882205
740.0,1.1109866827379336
744.0,0.9935995518988177
748.0,0.8815859974025122
752.0,0.7688447564391883
756.0,0.675895991053403
760.0,0.5478740386049213
764.0,0.44237669838936505
768.0,0.31437371888731164
772.0,0.229218546791112
776.0,0.11279047813085329
780.0,0.020150535690269786
784.0,-0.055494099326390225
788.0,-0.15758239999344542
792.0,-0.18828740384866194
796.0,-0.2727590119779265
800.0,-0.34721497910896215
804.0,-0.26509210006359657
808.0,-0.20661728155604933
812.0,-0.13040255330901018
816.0,-0.07677014570740263
820.0,-0.04381962007756289
824.0,-0.05114352594857189
828.0,-0.03132294226692495
832.0,-0.03666217651948645
836.0,-0.06664051464093643
840.0,-0.040989694714467624
844.0,-0.031216441430672915
848.0,-0.041398813431443346
852.0,-0.038128892419126516
856.0,-0.04141745836750367
860.0,-0.03892933529132481
864.0,-0.0353792737791032
868.0,-0.024394531200324508
872.0,-0.025111867645102273
876.0,-0.020936908138510953
880.0,-0.009740206557687772
884.0,-0.0228003229508421
888.0,-0.0012100557228615619
892.0,-0.0035408552584803043
896.0,-0.003171833644427991
900.0,0.0232685010761604
904.0,0.03129127897679198
908.0,0.05082362603378675
912.0,0.07688931754751482
916.0,0.10408617194377039
920.0,0.12644890727507227
924.0,0.16284476883587598
928.0,0.20498556397169676
932.0,0.2129832523640005
936.0,0.2217433526436324
940.0,0.2477825709371764
944.0,0.26446519109007316
948.0,0.2765856241730019
952.0,0.29129600950087026
956.0,0.2897251604853612
960.0,0.3188690662461465
964.0,0.30464292594526554
968.0,0.30653389485205634
972.0,0.32508108122864166
976.0,0.33674807308011245
980.0,0.3408538626420172
984.0,0.3185562841188938
988.0,0.3424251197741167
992.0,0.33606211989305873
996.0,0.30858338825724146
1000.0,0.3077592821784515
1004.0,0.29496170648535663
1008.0,0.3082628808775883
1012.0,0.2770018326874964
1016.0,0.2545162529255268
1020.0,0.24562702254024296
1024.0,0.20870009164125694
1028.0,0.207993538889651
1032.0,0.16967930222587857
1036.0,0.13647501286048103
1040.0,0.12872486065612024
1044.0,0.11919957124303412
1048.0,0.06087343959218426
1052.0,0.02572593244758509
1056.0,0.0030607277355872682
1060.0,0.021860852665378867
1064.0,0.006319762052639139
1068.0,-0.017025264872044695
1072.0,0.0001767849509590059
1076.0,0.0037885173807681396
1080.0,-0.0017879191472525615
1084.0,-0.011708565961205902
1088.0,0.019145872687369725
1092.0,0.008640202861185135
1096.0,0.0007156658067317027
1100.0,-0.004119323422437863
1104.0,0.007242556766009892
1108.0,-0.0017955790495152643
1112.0,0.004649396631754328
1116.0,0.02553336712453669
1120.0,-0.014728097617922925
1124.0,-0.0009660585075742453
1128.0,0.004369933790118898
1132.0,-0.006984330594471847
1136.0,-0.0005533851981422473
1140.0,0.009618155508456308
1144.0,0.013075115039561784
1148.0,-0.015582138471131136
1152.0,0.01530692255064846
1156.0,0.002332842160890294
1160.0,0.006995283579369242
1164.0,-0.012781935837827791
1168.0,0.02307186401205034
1172.0,-0.004879844742353906
1176.0,0.0014608050494193507
1180.0,-0.008419324190592313
1184.0,0.0041636855266437315
1188.0,0.012960215912330292
1192.0,-0.01348030995414003
1196.0,-0.003981414034441897
1200.0,-0.003872757235378799
1204.0,0.011488590302879834
1208.0,-0.008417690127854396
1212.0,-0.006841790028981419
1216.0,-0.007433131880467762
1220.0,-0.004809794328449524
1224.0,-0.007525967143242627
1228.0,0.017103064416177306
1232.0,-0.005083931814091191
1236.0,0.0014608375759563262
1240.0,-0.01789886289155345
1244.0,-0.013251353835439253
1248.0,-0.01306102081580095
1252.0,-0.007360156500751615
1256.0,0.0029884672699000787
1260.0,0.00985310388633236
1264.0,-0.008103497651727852
1268.0,-0.008695395995828827
1272.0,-0.020091874153104546
1276.0,0.00785464123192212
1280.0,-0.003548254714538692
1284.0,-0.002640061099282971
1288.0,0.0052173585419113275
1292.0,-0.00103283021856609
1296.0,-0.01895895521539926
1300.0,-0.005167155828814809
1304.0,0.005477156638705227
1308.0,-0.0005223584848580499
1312.0,-0.003528265453531432
1316.0,0.009365887471249154
1320.0,-0.004873124941893762
1324.0,-0.011343164445270502
1328.0,0.0036740500634322402
1332.0,0.004074995842506019
1336.0,-0.001611478470054366
1340.0,-0.006489109569773989
1344.0,0.00672766679942356
1348.0,-0.027917428206795474
1352.0,-0.0014993350705236126
1356.0,0.001786665381966109
1360.0,-0.004143657627982717
1364.0,0.016326721147330463
1368.0,-0.018121767667611293
1372.0,-0.0036992024142948124
1376.0,0.00047998603846850546
1380.0,-0.006541786293727029
1384.0,0.016046520388741815
1388.0,0.0017786940963688675
1392.0,-0.012764841942962008
1396.0,-0.006219577900795726
1400.0,0.015388866400224204
1404.0,0.061727932944527525
1408.0,0.0970483303244113
1412.0,0.11986479080702996
1416.0,0.15714081021709714
1420.0,0.19542370664013387
1424.0,0.21530579922185447
1428.0,0.2061625068445125
1432.0,0.254569461665041
1436.0,0.25445713009615717
1440.0,0.25854534547045743
1444.0,0.2663431024288969
1448.0,0.25957808679185224
1452.0,0.2507661853265637
1456.0,0.2542842048298932
1460.0,0.23637668059814068
1464.0,0.21999469918802328
1468.0,0.2067198510158051
1472.0,0.19597171008071845
1476.0,0.13688584024250897
1480.0,0.14974222647565025
1484.0,0.09038406488213682
1488.0,0.06856160034073804
1492.0,0.038870509282232374
1496.0,-0.004255096752737854
1500.0,0.0017569100705235939
1504.0,-0.001126643112158196
1508.0,-0.010177609809068967
1512.0,0.011176903756489179
1516.0,0.016244049452894406
1520.0,-0.0021315526482614286
1524.0,-0.01662045388329418
1528.0,-0.011837758228443214
1532.0,-0.005816254364800375
1536.0,-0.0029432672729657475
1540.0,-0.03969106435815354
1544.0,-0.07996252281379534
1548.0,-0.139381472024765
1552.0,-0.18466506083275142
1556.0,-0.007130452114408419
1560.0,0.10264904770979351
1564.0,0.217845914983284
1568.0,0.3033518455175328
1572.0,0.43239973190589565
1576.0,0.5217198664287552
1580.0,0.637960969848435
1584.0,0.7117185492619887
1588.0,0.8335372138244987
1592.0,0.9556538293934351
1596.0,1.0616808973046756
1600.0,0.9411325429745724
1604.0,0.8423576242245341
1608.0,0.7399575810319222
1612.0,0.6211352007050281
1616.0,0.5392921018739583
1620.0,0.428962403198889
1624.0,0.31433611213102325
1628.0,0.20742612575087205
1632.0,0.10038206359186828
1636.0,0.0009909284937263353
1640.0,-0.06407183168047786
1644.0,-0.1267289677333115
1648.0,-0.21620264476291803
1652.0,-0.25005339465282295
1656.0,-0.29189497568134326
1660.0,-0.2516029518950067
1664.0,-0.20387030739601514
1668.0,-0.12261947699518314
1672.0,-0.07673653052579539
1676.0,-0.04890475694109068
1680.0,-0.0667991545789083
1684.0,-0.05610542638987157
1688.0,-0.033420680825351684
1692.0,-0.02702001633750106
1696.0,-0.04512866704985941
1700.0,-0.03388351458116337
1704.0,-0.0323580030325663
1708.0,-0.039397538314254466
1712.0,-0.03219808215328579
1716.0,-0.03875513099533535
1720.0,-0.03626843411663064
1724.0,-0.017912756269841415
1728.0,-0.023543680829366465
1732.0,-0.011318952333966098
1736.0,0.008176621031669057
1740.0,-0.022662451723719824
1744.0,-0.002077094552495501
1748.0,0.006401063495670849
1752.0,-0.015412207912544327
1756.0,0.004676487770315546
1760.0,0.025063624289895163
1764.0,0.054203463683855986
1768.0,0.07369871446310797
1772.0,0.10608200764582208
1776.0,0.11584197630967465
1780.0,0.1510829984401436
1784.0,0.16468527419698795
1788.0,0.18695771032617112
1792.0,0.20877749391214395
1796.0,0.21037207426036778
1800.0,0.24062657680413838
1804.0,0.24640023709795209
1808.0,0.2748139632864582
1812.0,0.2884336545552085
1816.0,0.2836813910318132
1820.0,0.2943333502933148
1824.0,0.2799670717101565
1828.0,0.3133264291403459
1832.0,0.3082820871940548
1836.0,0.3213283523685477
1840.0,0.3062232336814596
1844.0,0.3007864018452905
1848.0,0.3018432826664863
1852.0,0.2894923450486189
1856.0,0.2672810719853126
1860.0,0.2823310013096885
1864.0,0.26687637917255336
1868.0,0.25609339777919926
1872.0,0.2282045430570242
1876.0,0.20411432421319553
1880.0,0.19344782084329487
1884.0,0.17041164462034017
1888.0,0.17807594246863417
1892.0,0.14809380379659587
1896.0,0.09544089871351497
1900.0,0.09122552711125548
1904.0,0.07724813027437467
1908.0,0.03654034345659792
1912.0,0.029221159287725666
1916.0,0.009799363376710519
1920.0,0.008061910096116974
1924.0,-0.01428953974601251
1928.0,-0.009636593901239115
1932.0,0.010899468044293543
1936.0,-0.002268922139931184
1940.0,0.004447568539274379
1944.0,0.016190513553198334
1948.0,0.008534446808678871
1952.0,0.02282114337708742
1956.0,-0.010618748752367372
1960.0,-0.0059695359970002885
1964.0,-0.0005490502649180286
1968.0,0.0016772780914843597
1972.0,-0.004389284485019492
1976.0,-0.005776954203706644
1980.0,0.004322590994331047
1984.0,-0.010901049086910149
1988.0,0.019853326363753025
1992.0,-0.009113636305276798
1996.0,-0.0031339091548142667
2000.0,-0.0115726362761692
2004.0,-0.0031957794590120356
2008.0,0.0117770203145679
2012.0,-0.018574877187154955
2016.0,-0.0003350797528517609
2020.0,-0.011538766169391857
2024.0,0.016066553891233265
2028.0,-0.004784386273174957
2032.0,-0.01202281715334068
2036.0,-0.01109506938111954
2040.0,0.016013843002221764
2044.0,0.003945000020488664
2048.0,-0.007414715940460695
2052.0,-0.007054789008120524
2056.0,0.001859999750767103
2060.0,-0.009276030756613103
2064.0,-0.0003752154453636392
2068.0,0.01729351049437582
2072.0,-0.004257040303044208
2076.0,0.016802648215166867
2080.0,-0.0033510092620584095
2084.0,-0.004553090976015148
2088.0,0.007070595440957597
2092.0,0.0021787457116071605
2096.0,0.004800072332530233
2100.0,0.015481418939456306
2104.0,-0.010755780396669194
2108.0,-0.0026056863233802565
2112.0,0.019355353662176
2116.0,-0.0026304298866997007
2120.0,0.007062147498410523
2124.0,-0.0025662130884610574
2128.0,-0.0014798927061549835
2132.0,-0.009463454585619594
2136.0,-0.0019651368018896564
2140.0,0.014604628983838316
2144.0,-0.02081961238696449
2148.0,0.009317764332816126
2152.0,0.004719206745497133
2156.0,0.011019240187584458
2160.0,-0.018017138456022982
2164.0,-0.015111217341267335
2168.0,0.022981912264883345
2172.0,-0.0026043935807604527
2176.0,-0.013023703370940328
2180.0,0.003769752150882612
2184.0,0.0003422059420343832
2188.0,0.01794770024724275
2192.0,-0.0038774544436745067
2196.0,0.002681560390222875
2200.0,0.011867407882315066
2204.0,-0.01751287627813965
2208.0,-0.0107168162040246
2212.0,-0.0009092643945304954
2216.0,-0.013495867651683653
2220.0,-0.013922544291338679
2224.0,0.007453721956621674
2228.0,0.011948410548010683
2232.0,-0.0045044758145175974
2236.0,-0.009204141182484422
2240.0,-0.00021431096274020928
2244.0,-0.009698179786509206
2248.0,-0.0009400128455221303
2252.0,0.00818029648330387
2256.0,0.031210094485105363
2260.0,0.05239412222068783
2264.0,0.07891630539735485
2268.0,0.10994359034675039
2272.0,0.1509486098918048
2276.0,0.16218243493583642
2280.0,0.16742713830609307
2284.0,0.20611933224587498
2288.0,0.21363496042378205
2292.0,0.23180696271257833
2296.0,0.2205598355928507
2300.0,0.22470372103155176
2304.0,0.2339967624219499
2308.0,0.22872405347590685
2312.0,0.2108792142511007
2316.0,0.1956495666067617
2320.0,0.17890465580356377
2324.0,0.1757138902703483
2328.0,0.1595497232869411
2332.0,0.12551283279925374
2336.0,0.09973087463335477
2340.0,0.07554037580538664
2344.0,0.06226341667863376
2348.0,0.026509740864484082
2352.0,-0.012043748676286228
2356.0,-0.006512172950772296
2360.0,0.007695344311780506
2364.0,0.005606924411133678
2368.0,0.015429539566248646
2372.0,0.0025437452515778684
2376.0,-0.0013533568877964269
2380.0,-0.0047752103824107404
2384.0,-0.007558027364771153
2388.0,0.00796471403899945
2392.0,0.008611500807037629
2396.0,-0.023870171502129413
2400.0,-0.08301454269783796
2404.0,-0.11619442119581269
2408.0,-0.14518993680829365
2412.0,-0.001614605591643561
2416.0,0.09376701998347718
2420.0,0.1789418478765302
2424.0,0.2768149389409159
2428.0,0.3661612563007425
2432.0,0.456767172642948
2436.0,0.5260683628106727
2440.0,0.6359729847636334
2444.0,0.721308693968274
2448.0,0.793239805774479
2452.0,0.9060946655213289
2456.0,0.8067548935739328
2460.0,0.7015428165096441
2464.0,0.613254750597093
2468.0,0.5380301640486663
2472.0,0.4410426738039091
2476.0,0.3686164728332707
2480.0,0.2627723437992925
2484.0,0.17886171390754818
2488.0,0.10357929773606639
2492.0,-0.013390529965073731
2496.0,-0.053037248478408315
2500.0,-0.09577533291578501
2504.0,-0.17880655089294048
2508.0,-0.23303831888661747
2512.0,-0.26679170463704355
2516.0,-0.20548378821596056
2520.0,-0.17151105340035216
2524.0,-0.10728830756637199
2528.0,-0.04765498874704432
2532.0,-0.05272437724857332
2536.0,-0.04445772804834014
2540.0,-0.046292422042702085
2544.0,-0.042269565070363314
2548.0,-0.04271143481757332
2552.0,-0.03932842750894549
2556.0,-0.02029658507633775
2560.0,-0.024078343120737623
2564.0,-0.02257227955716563
2568.0,-0.019673815683953134
2572.0,-0.03341470594968459
2576.0,-0.024641897219135202
2580.0,-0.030718373033909164
2584.0,-0.010457314961825224
2588.0,-0.027883755576908458
2592.0,-0.009087998050849196
2596.0,-0.003287264076882168
2600.0,0.003042441024039171
2604.0,-0.007675947688450734
2608.0,-0.011085157306561863
2612.0,0.010067079961379457
2616.0,0.019807553238896766
2620.0,0.05878935983946002
2624.0,0.05469408652546815
2628.0,0.06907924601929712
2632.0,0.10385900839079154
2636.0,0.11201973421849022
2640.0,0.13241470546022743
2644.0,0.15289083845521972
2648.0,0.14472718794124398
2652.0,0.1886722993446019
2656.0,0.21036151853187912
2660.0,0.20191193882985564
2664.0,0.21893668341352024
2668.0,0.22398739327271538
2672.0,0.2408895650603314
2676.0,0.27347938372333475
2680.0,0.2508243324851451
2684.0,0.2566124414917635
2688.0,0.25826707971701157
2692.0,0.2722313623137703
2696.0,0.2729195147460553
2700.0,0.25210615012907905
2704.0,0.25699206755507664
2708.0,0.25861854229891895
2712.0,0.23183682403974148
2716.0,0.2451904823472956
2720.0,0.2224064439895101
2724.0,0.21202225400017033
2728.0,0.20070816258915486
2732.0,0.18361723398184582
2736.0,0.16590973844894993
2740.0,0.13867445600595724
2744.0,0.12000309044546029
2748.0,0.11680787362563382
2752.0,0.1153924568302032
2756.0,0.09065928445936787
2760.0,0.07369529925095744
2764.0,0.039461719421522275
2768.0,0.014794311151922831
2772.0,0.001976017323858109
2776.0,0.0009643691879572096
2780.0,-0.002441194163682924
2784.0,-0.004924217652541049
2788.0,0.004439217703391618
2792.0,-0.001109400151316867
2796.0,0.00283470372742093
2800.0,-0.006431064412359405
2804.0,-0.013922599459718224
2808.0,-0.010551886847662827
2812.0,-0.00028545888709405944
2816.0,-0.003987088056264538
2820.0,0.0010062184003127997
2824.0,-0.0054766272621903055
2828.0,-0.0163283192046634
2832.0,-0.0048917249035147605
2836.0,-0.0015978296607250231
2840.0,-0.009418545668276896
2844.0,-0.005377819298101939
2848.0,0.007279366554995128
2852.0,0.008670572945499362
2856.0,-0.0035065555276221206
2860.0,0.005533715554979223
2864.0,-0.006998201716547452
2868.0,0.0006451216972214216
2872.0,0.007785324217147543
2876.0,0.012103769601347143
2880.0,-0.004920987021059724
2884.0,0.01587696089952623
2888.0,0.00039303485794927093
2892.0,-0.0002329828293891044
2896.0,0.0002305000262977301
2900.0,-0.004500256058131054
2904.0,-0.002317876726783984
2908.0,0.006727466850365432
2912.0,0.0064869703498605285
2916.0,0.0009374801760692014
2920.0,0.00016252175371786226
2924.0,0.007775966425328389
2928.0,0.0015414552364006607
2932.0,-0.0005951036235811534
2936.0,0.001189952254976267
2940.0,-0.00912953423173827
2944.0,-0.002633751897842891
2948.0,-0.012001799173096352
2952.0,0.007586990213877479
2956.0,-0.0001813880082681596
2960.0,-0.00016261143784189984
2964.0,0.005744831784096567
2968.0,0.02014714437831863
2972.0,-0.009206550681120286
2976.0,0.014955775423733417
2980.0,0.015028302689438678
2984.0,-0.004865248633213918
2988.0,-0.0031013943286463896
2992.0,0.0058421039441732435
2996.0,-0.01206653914817234
3000.0,0.004486224499818342
3004.0,-0.003850019647390072
3008.0,-0.007799140794151688
3012.0,0.011960741363182956
3016.0,0.0037153957283769645
3020.0,-0.019342760945055302
3024.0,0.006490604028094809
3028.0,-0.004454638134591132
3032.0,0.016252839188592272
3036.0,0.0009926244933794511
3040.0,0.014129512961129177
3044.0,-0.0006375239613061653
3048.0,-0.00110373390928938
3052.0,-0.0018255592428765416
3056.0,0.0030853049566656387
3060.0,-0.009236163358402629
3064.0,0.02322383168888893
3068.0,-0.00996291696955549
3072.0,-0.006220559565824414
3076.0,-0.0038016634725963443
3080.0,-0.0026334765385620327
3084.0,-0.0014881311458538344
3088.0,-0.012623243751637894
3092.0,-0.002962998614224926
3096.0,0.014574090418048694
3100.0,0.0006390943801222972
3104.0,-0.004889298649683458
3108.0,-0.0025697435320955805
3112.0,0.03159903039203202
3116.0,0.058103668780403746
3120.0,0.0955644348046509
3124.0,0.11462614822718846
3128.0,0.12087787151947535
3132.0,0.1677493037120628
3136.0,0.17424103577602876
3140.0,0.18226143160482128
3144.0,0.20874010564839626
3148.0,0.21222030290631272
3152.0,0.22594624911008293
3156.0,0.23825642770817887
3160.0,0.23615861403528335
3164.0,0.21802337064903243
3168.0,0.21713399899552885
3172.0,0.21259570445682224
3176.0,0.19784070418146632
3180.0,0.183260976858032
3184.0,0.16029199973590366
3188.0,0.14373500424591598
3192.0,0.11236782132630944
3196.0,0.09018619237815415
3200.0,0.06537841422683366
3204.0,0.03322313111951478
3208.0,0.00029177365477242145
3212.0,-0.002240917957604816
3216.0,-0.0037827495692538825
3220.0,0.002521603907193089
3224.0,0.013368095842414553
3228.0,-0.009223007095241863
3232.0,-0.0009897355047563438
3236.0,0.018093248442577186
3240.0,0.0060140479476162466
3244.0,0.0023237617354965653
3248.0,-0.0008826774524907137
3252.0,-0.03268024074692742
3256.0,-0.07277762847540176
3260.0,-0.1071058099132997
3264.0,-0.13402229372327434
3268.0,0.0015592218451546725
3272.0,0.09390514098933854
3276.0,0.19852522794513133
3280.0,0.26008137849702045
3284.0,0.376838250268498
3288.0,0.4642413217037406
3292.0,0.5740224924556309
3296.0,0.6522023970471075
3300.0,0.7442559618428067
3304.0,0.8711192858422057
3308.0,0.9385106054747367
3312.0,0.8557465041791572
3316.0,0.7544698919293704
3320.0,0.6471017572788523
3324.0,0.5651306446983491
3328.0,0.46116284842132016
3332.0,0.37640214727721094
3336.0,0.2777985069687812
3340.0,0.2051765046536321
3344.0,0.10955043714486966
3348.0,-0.006950033931807608
3352.0,-0.05856698973562331
3356.0,-0.09700723207623911
3360.0,-0.173809163026582
3364.0,-0.21494422191404458
3368.0,-0.2881089898814321
3372.0,-0.22695865299528553
3376.0,-0.1724511390519155
3380.0,-0.11710101407105897
3384.0,-0.05891494729473912
3388.0,-0.04668479652977449
3392.0,-0.05302723798616694
3396.0,-0.042316074541613805
3400.0,-0.04131592477093522
3404.0,-0.038343587962769356
3408.0,-0.03366998910368353
3412.0,-0.04610722249380362
3416.0,-0.03532011555844042
3420.0,-0.02245075053980668
3424.0,-0.03462359129350199
3428.0,-0.02198972698994759
3432.0,-0.022457704094073345
3436.0,-0.012873478923541999
3440.0,-0.014893274529977654
3444.0,-0.0035349624637671323
3448.0,-0.019907917238290163
3452.0,-0.0071977686503278985
3456.0,-0.004283395823343759
3460.0,-0.012852004761017442
3464.0,-0.019546741598403233
3468.0,0.0013270425624470738
3472.0,0.026798766867823308
3476.0,0.021457694901841448
3480.0,0.061462712367256866
3484.0,0.07322525800188127
3488.0,0.12573661732728222
3492.0,0.11299205671931038
3496.0,0.14514476060467002
3500.0,0.17494680818795622
3504.0,0.19554793458587913
3508.0,0.20072302101322098
3512.0,0.20977155915794726
3516.0,0.23655124410461834
3520.0,0.24984610033674653
3524.0,0.26063448771514464
3528.0,0.24991178841167547
3532.0,0.28151896222326
3536.0,0.2814754346104592
3540.0,0.30194374537455726
3544.0,0.282772208422951
3548.0,0.28902914941788654
3552.0,0.304549031809314
3556.0,0.27214260193595996
3560.0,0.2655144688863073
3564.0,0.2813684755562147
3568.0,0.26220485077187217
3572.0,0.2710634222675785
3576.0,0.2361313270686168
3580.0,0.2454989787706127
3584.0,0.2175756534123908
3588.0,0.18484461919094494
3592.0,0.2000287008363167
3596.0,0.1843428990163601
3600.0,0.16782469682989343
3604.0,0.13928206346186073
3608.0,0.09333518346847619
3612.0,0.08814548298036833
3616.0,0.08269499923761692
3620.0,0.04057242922209177
3624.0,0.010389880232349134
3628.0,-0.005978688448764579
3632.0,0.0042582069798017125
3636.0,0.0018520818802302218
3640.0,0.00935776806859271
3644.0,-0.004015708680238938
3648.0,-0.0057229133077295645
3652.0,0.0011215544198472037
3656.0,-0.01548636100329488
3660.0,0.013793989049843941
3664.0,-0.003279833090296803
3668.0,0.0027161026512521223
3672.0,-0.007627388298791456
3676.0,-0.025363067603803177
3680.0,-0.006601100142114881
3684.0,0.01266496968610878
3688.0,-0.003554321727474467
3692.0,0.010563869773090744
3696.0,-0.0015169594814402134
3700.0,-0.0060300546085437804
3704.0,-0.009351028864933913
3708.0,-0.00776340425710288
3712.0,-0.004262189709124418
3716.0,-0.004670204159849657
3720.0,0.0063245096585985375
3724.0,0.004008952400608436
3728.0,-0.01014828111842886
3732.0,-0.013903383277478283
3736.0,0.0036502222704588067
3740.0,-0.005490131095713728
3744.0,0.0013257135863320025
3748.0,-0.011925241938289217
3752.0,0.015392274242309488
3756.0,0.005471995574634517
3760.0,3.7160562339076986e-05
3764.0,0.006991537514549987
3768.0,-0.01965636257145313
3772.0,-0.011686139124311995
3776.0,-0.005342168422694121
3780.0,-0.0010345270878390144
3784.0,-0.005275060951233608
3788.0,0.004215665497600908
3792.0,0.01813312398976608
3796.0,0.0017073734954935601
3800.0,0.010273694852343222
3804.0,0.004726357789434188
3808.0,0.01759982963450805
3812.0,-0.0027492407665814017
3816.0,0.0026736729219612714
3820.0,-0.01952544276193003
3824.0,0.0037322688348729966
3828.0,-0.013211152117313524
3832.0,0.008730343363144369
3836.0,0.0302339339012708
3840.0,-0.00881739218930496
3844.0,-0.009923708263814777
3848.0,0.006966604045427995
3852.0,0.007139550917735099
3856.0,-0.004352399770672049
3860.0,0.021621100701230613
3864.0,0.006374182447777379
3868.0,-0.005188093104902517
3872.0,-0.009396346775333441
3876.0,-0.005034070623103602
3880.0,0.007548270023802334
3884.0,0.009268336990191908
3888.0,-0.006529290681455388
3892.0,-0.001609993091951116
3896.0,0.00736518344021916
3900.0,0.011430299347717936
3904.0,-0.008408086189900502
3908.0,-0.004162306052415016
3912.0,-0.003689108502512088
3916.0,0.001039815730107586
3920.0,0.01646296427238663
3924.0,-0.007116438372781816
3928.0,-0.015115889516692634
3932.0,0.005598486974523441
3936.0,-0.00904070271835308
3940.0,0.004508232703020617
3944.0,0.0059473223372070805
3948.0,-0.020832035904918878
3952.0,0.0018153801404589694
3956.0,-0.008387675780141558
3960.0,9.323584502641764e-05
3964.0,0.0069451177131424026
3968.0,0.03624993778725492
3972.0,0.07631007977786149
3976.0,0.08599557201340431
3980.0,0.12191328430661537
3984.0,0.15590313513477153
3988.0,0.1775915012458381
3992.0,0.17815023442465244
3996.0,0.2215278878597475
4000.0,0.21882874370735353
4004.0,0.2318985433463246
4008.0,0.26693374703005485
4012.0,0.24883069911193223
4016.0,0.2609647787411102
4020.0,0.2477776424522936
4024.0,0.22912168529937232
4028.0,0.24147528800717408
4032.0,0.197244522938957
4036.0,0.19127855391401635
4040.0,0.15971381723917463
4044.0,0.1611790612053391
4048.0,0.11200555590808112
4052.0,0.10425691424190765
4056.0,0.05048598745155437
4060.0,0.053126608518219307
4064.0,-0.006605278426072352
4068.0,-0.0017302700293968126
4072.0,-0.015119040623345785
4076.0,0.00674579155155621
4080.0,0.003238274332742618
4084.0,-0.0052048211901684184
4088.0,-0.015323840989550457
4092.0,-0.00847365972753576
4096.0,-0.003909245993908179
4100.0,0.013284607668355658
4104.0,0.00644756853986939
4108.0,-0.031720255500320406
4112.0,-0.06711243152059838
4116.0,-0.09578252240559311
4120.0,-0.1659016136767363
4124.0,-0.0017652624237393423
4128.0,0.09598245127855833
4132.0,0.1656780182174972
4136.0,0.3183510723218556
4140.0,0.4192652179487397
4144.0,0.5094277060397238
4148.0,0.5881536138385516
4152.0,0.7061624294404103
4156.0,0.8172829469283569
4160.0,0.9336588728373786
4164.0,1.021307328784465
4168.0,0.9261376241142052
4172.0,0.8210497717182754
4176.0,0.73718954907516
4180.0,0.6263069444712681
4184.0,0.5044517821532957
4188.0,0.4115583728208191
4192.0,0.30711485697055935
4196.0,0.18819179442399353
4200.0,0.10964315487310045
4204.0,-0.008506197332197228
4208.0,-0.06356712609448556
4212.0,-0.10731127410294299
4216.0,-0.20070261891924582
4220.0,-0.2510926627987589
4224.0,-0.31038644489530987
4228.0,-0.2491397824089839
4232.0,-0.1954588464449572
4236.0,-0.1144535010261327
4240.0,-0.06563783847241668
4244.0,-0.06592213350480194
4248.0,-0.04257493450898031
4252.0,-0.05692145828242974
4256.0,-0.06104498528443113
4260.0,-0.0340651416498882
4264.0,-0.05334964758347155
4268.0,-0.04573606836139271
4272.0,-0.03698506672315807
4276.0,-0.06825020327843596
4280.0,-0.047834633008620356
4284.0,-0.028806283426505878
4288.0,-0.02285544845798292
4292.0,-0.022136195288318682
4296.0,-0.05243913745933442
4300.0,-0.030007661670842872
4304.0,-0.00542737130383963
4308.0,-0.014574636981089939
4312.0,-0.00031962378439468343
4316.0,0.01158591017085965
4320.0,0.005027627886662367
4324.0,-0.0016996058321377342
4328.0,0.016744915121348604
4332.0,0.050079714150421166
4336.0,0.07158278335841418
4340.0,0.08252780658124016
4344.0,0.1264205000728441
4348.0,0.1440603750097791
4352.0,0.16189139973228603
4356.0,0.1817577054472484
4360.0,0.21747269001983666
4364.0,0.2011580308888434
4368.0,0.22200230614977642
4372.0,0.22550265539756392
4376.0,0.2560894780377835
4380.0,0.27887128067207384
4384.0,0.3013015486418769
4388.0,0.30738842295273827
4392.0,0.29989825481092985
4396.0,0.3139060758946522
4400.0,0.3145303490610675
4404.0,0.31159208952516365
4408.0,0.32019595575964416
4412.0,0.31338776707531596
4416.0,0.3022348199179373
4420.0,0.311396852761948
4424.0,0.282830189914327
4428.0,0.2690892010462156
4432.0,0.261510081841307
4436.0,0.2420152218123543
4440.0,0.23935143236053272
4444.0,0.2197238139509201
4448.0,0.21383009153179505
4452.0,0.1773405391949737
4456.0,0.16592828929206602
4460.0,0.1450316097042587
4464.0,0.11458316027230277
4468.0,0.104501809678085
4472.0,0.06999987134343086
4476.0,0.03868494647347132
4480.0,0.03594819097132547
4484.0,0.03175997779502597
4488.0,0.003822959245775443
4492.0,0.0008284358924241577
4496.0,-0.009718367117675859
4500.0,-0.002697369123060287
4504.0,0.007196285219825974
4508.0,0.005227542042984833
4512.0,0.00828971323512098
4516.0,0.004994524990638693
4520.0,-0.0004908271242423632
4524.0,-0.014058517457547997
4528.0,0.011648993338516276
4532.0,-0.01997517964719857
4536.0,-0.004372755103515319
4540.0,-0.009675669111577013
4544.0,-0.00928261699132979
4548.0,0.00119860843085526
4552.0,-0.007984634602526474
4556.0,0.004678592029611461
4560.0,0.00932568310831636
4564.0,-0.0010503015151533054
4568.0,-0.0006210003599122311
4572.0,0.0042422224086645505
4576.0,0.011288479800051007
4580.0,0.004134185212757724
4584.0,-0.006318293276739199
4588.0,0.01041647799368575
4592.0,0.002114513851218544
4596.0,-0.01473672974822027
4600.0,0.0009209967518556056
4604.0,0.012650592689835947
4608.0,-0.00145893962467113
4612.0,-0.012806166970186678
4616.0,-0.0003959672265538863
4620.0,-0.0058054446792067125
4624.0,-0.01895140237199316
4628.0,0.006004808104403265
4632.0,0.016653714726083214
4636.0,0.013223241888720334
4640.0,-0.002329486237618662
4644.0,0.022482947371889692
4648.0,-0.0033258180606224345
4652.0,-0.008586699628432693
4656.0,0.02619693322128524
4660.0,0.012858359932412676
4664.0,0.003029864390230688
4668.0,-0.006325378458530664
4672.0,0.015466490385093122
4676.0,-0.02120702926540521
4680.0,-0.015701569503075007
4684.0,0.00430292786005798
4688.0,-0.0029202514000155303
4692.0,-0.021928863116578646
4696.0,-0.02263894096995193
4700.0,-0.015188452638391338
4704.0,-0.01295855936716751
4708.0,-0.013528879063447779
4712.0,-0.004424288071352361
4716.0,-0.00820357471678253
4720.0,-0.003112159073817716
4724.0,-0.0013268517490959478
4728.0,0.016075668926957127
4732.0,0.015315497185961377
4736.0,-0.0081415012288508
4740.0,0.00911054445643798
4744.0,0.003733532427718647
4748.0,-0.004164147354229178
4752.0,-0.01258921002251031
4756.0,0.004993664722747619
4760.0,-0.004202021511213395
4764.0,0.025567598379725647
4768.0,0.005588992103526714
4772.0,0.006009199939747847
4776.0,-0.001652763841488966
4780.0,-0.005287169837808259
4784.0,0.009763852765841673
4788.0,-0.013747619178919208
4792.0,0.005448608793932255
4796.0,0.01341344396756848
4800.0,0.0025996137746459366
4804.0,0.0036418972736103677
4808.0,0.008339122972157493
4812.0,-0.0104943014648929
4816.0,-0.02158829684698625
4820.0,-0.003983717434073231
4824.0,0.026227097907172817
4828.0,0.07250743479413987
4832.0,0.11926690161465893
4836.0,0.136731221242347
4840.0,0.16978174313911576
4844.0,0.19849292684479344
4848.0,0.22135624246987617
4852.0,0.23497995105574693
4856.0,0.24835124035283804
4860.0,0.2573620582138035
4864.0,0.2866949233294201
4868.0,0.2800375996253317
4872.0,0.2750071435760226
4876.0,0.2829192753583045
4880.0,0.28018608974855186
4884.0,0.2542582937448688
4888.0,0.24979889274650363
4892.0,0.23046893559464696
4896.0,0.1960539895759427
4900.0,0.20079566473495256
4904.0,0.14287601422557802
4908.0,0.09749486195412976
4912.0,0.07116924902363761
4916.0,0.055290893965412306
4920.0,-0.0056337915463934
4924.0,-0.007998253391060544
4928.0,0.003091802261429331
4932.0,0.0038969697189874873
4936.0,-0.016739926301877747
4940.0,-0.008287992704494913
4944.0,1.657926004446805e-05
4948.0,-0.007124804976331958
4952.0,0.006847475034533607
4956.0,-0.021506550857169886
4960.0,0.0033369946271434984
4964.0,-0.054134978700681735
4968.0,-0.102703883401296
4972.0,-0.12741283651180804
4976.0,-0.1781234500421579
4980.0,0.0009156742987759348
4984.0,0.105058394405057
4988.0,0.2317257804549097
4992.0,0.3297915986496034
4996.0,0.4484003404780836
5000.0,0.5640840385899796
5004.0,0.6589260607691293
5008.0,0.7857607274510929
5012.0,0.8798005540931103
5016.0,1.010408805129228
5020.0,1.1262725139733558
5024.0,1.008766168469763
5028.0,0.9029279529267309
5032.0,0.8189118540463518
5036.0,0.6652065482473821
5040.0,0.57656670633836
5044.0,0.44079130313822323
5048.0,0.33745402683662495
5052.0,0.21732773497896846
5056.0,0.11397471747686022
5060.0,0.010806927193933957
5064.0,-0.07600667351151437
5068.0,-0.15353254114741235
5072.0,-0.1982201387842885
5076.0,-0.26650003393749905
5080.0,-0.3232653809572378
5084.0,-0.2836418553587305
5088.0,-0.2052928591307607
5092.0,-0.1488541870275687
5096.0,-0.0848502265796314
5100.0,-0.059092575922591165
5104.0,-0.04764867566435834
5108.0,-0.06466519227835124
5112.0,-0.04696066705086973
5116.0,-0.04819028157958075
5120.0,-0.04306256355130244
5124.0,-0.06394547955516337
5128.0,-0.06395485859045796
5132.0,-0.02861867983544307
5136.0,-0.03952192382358613
5140.0,-0.018667530303110615
5144.0,-0.02941150979174814
5148.0,-0.013666419282209413
5152.0,-0.014079022944383922
5156.0,-0.015736416468566636
5160.0,-0.004887903574020934
5164.0,-0.016374418054876654
5168.0,0.003203030932138701
5172.0,0.0017626757205681785
5176.0,-0.009450642402301344
5180.0,0.002179903190278315
5184.0,0.01699664303322085
5188.0,0.06221781328798704
5192.0,0.07420668164616534
5196.0,0.10117184193363642
5200.0,0.13182883954779495
5204.0,0.16142360425292046
5208.0,0.1592531113335693
5212.0,0.1913261554036389
5216.0,0.20489134481132035
5220.0,0.23534048377231265
5224.0,0.26687690059532915
5228.0,0.277886038856889
5232.0,0.2766501834853835
5236.0,0.30244977890756986
5240.0,0.30116328142309934
5244.0,0.3148294024492344
5248.0,0.33460314546048636
5252.0,0.3155074658004625
5256.0,0.3492730837956931
5260.0,0.3158366833862139
5264.0,0.35636302704805795
5268.0,0.3117849767293894
5272.0,0.33420690954251203
5276.0,0.3076027358743004
5280.0,0.32483944050475877
5284.0,0.3024479388180095
5288.0,0.2852953220432887
5292.0,0.25541633071654424
5296.0,0.2694845956044882
5300.0,0.23590555437115204
5304.0,0.2139316823819248
5308.0,0.19211051630371814
5312.0,0.1520452807515659
5316.0,0.15674470573426
5320.0,0.12406747020840984
5324.0,0.10012636805402118
5328.0,0.089326473833658
5332.0,0.07054519089955896
5336.0,0.03355977371049191
5340.0,-0.008213158872437714
5344.0,-0.0007601717192266767
5348.0,-0.0015704771819120271
5352.0,0.003425845955595163
5356.0,0.012204813314304936
5360.0,-0.001830925131972614
5364.0,-0.0005062659780338866
5368.0,0.0067928761081468055
5372.0,-0.01035579804096203
5376.0,0.004771208582789997
5380.0,-0.014102678418084751
5384.0,0.010394665394454855
5388.0,-0.013640318350386869
5392.0,-0.011977809214078863
5396.0,0.011257994949412839
5400.0,-0.006305747816999981
5404.0,0.016624826228625603
5408.0,0.0046865396727870075
5412.0,-0.0058748501887498274
5416.0,0.004944996086834804
5420.0,0.0010816999787820578
5424.0,-0.009423051801475405
5428.0,0.013206187955758633
5432.0,0.006955585298887755
5436.0,-0.01909209020059283
5440.0,0.002952009875585712
5444.0,-0.002014322568494784
5448.0,-0.01925193265428661
5452.0,0.00166955091060425
5456.0,-0.004663842922567336
5460.0,0.0010618811832537505
5464.0,0.0184715462600712
5468.0,0.0019408687077305746
5472.0,0.014153632193542891
5476.0,0.004674061918902266
5480.0,0.01173740856977641
5484.0,-0.002625963304288787
5488.0,-0.004187816282946492
5492.0,0.02064730111701961
5496.0,0.005885810760033456
5500.0,0.01327905500496101
5504.0,0.017150700373584807
5508.0,0.006179038528709264
5512.0,-0.018431251769310937
5516.0,-0.01267991107026281
5520.0,0.013077013964788662
5524.0,-0.004346864777659525
5528.0,0.015483375207352592
5532.0,-0.015748113366996486
5536.0,-0.003339312785103286
5540.0,0.0038268652223958353
5544.0,0.004027177598322911
5548.0,0.010073584301496461
5552.0,-0.013669388218725993
5556.0,0.004455994678430307
5560.0,-0.002669717331394541
5564.0,-0.0005718898218146337
5568.0,0.023633463282599864
5572.0,0.002647316139483997
5576.0,0.010987813994305158
5580.0,0.010532649172028265
5584.0,-0.00548545157783112
5588.0,-0.008235971881567588
5592.0,0.01611636948391735
5596.0,0.0012535567683265288
5600.0,-0.018299719015474426
5604.0,-0.006280173102354877
5608.0,0.006799104560069083
5612.0,0.004570159438953529
5616.0,0.013016931944688788
5620.0,-0.004218108624079997
5624.0,0.0066023932050437
5628.0,-0.003583217110312729
5632.0,-0.0053020189962585135
5636.0,0.011601068591575154
5640.0,0.01729152688499077
5644.0,-0.001171017100291967
5648.0,-0.001194705986895217
5652.0,0.011642905977861058
5656.0,0.0031998186693231014
5660.0,-0.008348865389832032
5664.0,-0.009325822524075928
5668.0,0.01518870917849394
5672.0,0.0018600554451418828
5676.0,-0.007417573157275994
5680.0,0.030015516310234115
5684.0,0.05880594242164079
5688.0,0.09112651689893737
5692.0,0.1376345667318727
5696.0,0.1503309866579492
5700.0,0.18369083002941722
5704.0,0.20184771247835384
5708.0,0.21518026445511362
5712.0,0.2317383086702132
5716.0,0.26896507185922514
5720.0,0.26202003999067613
5724.0,0.2624116714355352
5728.0,0.24923877865666513
5732.0,0.256807268274499
5736.0,0.26708940572783124
5740.0,0.2409625514319064
5744.0,0.20071855671625483
5748.0,0.19556440550006204
5752.0,0.18270580659780736
5756.0,0.13988991442854862
5760.0,0.11887437275483898
5764.0,0.08593374860986465
5768.0,0.05995201953183716
5772.0,0.026678382560414257
5776.0,-0.002298628009467281
5780.0,-0.005344060621288135
5784.0,0.013023327186461252
5788.0,-0.006573041160891665
5792.0,0.01045035076375347
5796.0,-0.004798035381473174
5800.0,-0.007320296972685826
5804.0,0.005918599504830124
5808.0,-0.006242921266908519
5812.0,0.002421222834076706
5816.0,0.005444740771236108
5820.0,-0.03715171745359674
5824.0,-0.06371510528895992
5828.0,-0.12904018821184135
5832.0,-0.15755903751512107
5836.0,-0.011907064642379292
5840.0,0.10653900175170276
5844.0,0.2128849316378477
5848.0,0.3152990297342902
5852.0,0.40814033429978924
5856.0,0.5123993526443149
5860.0,0.6035629502280178
5864.0,0.7184688364766764
5868.0,0.8199416290743147
5872.0,0.9260387065890534
5876.0,1.0322628929210347
5880.0,0.9147607548469949
5884.0,0.8147006963167583
5888.0,0.7199436299648132
5892.0,0.6271342293437816
5896.0,0.5083434107041358
5900.0,0.411117875083743
5904.0,0.31491986482825823
5908.0,0.20270157605258884
5912.0,0.09743386207606862
5916.0,-0.004501818128816048
5920.0,-0.08007505940740037
5924.0,-0.11888821084191335
5928.0,-0.17701287231018342
5932.0,-0.2524302378529298
5936.0,-0.3075934510889271
5940.0,-0.22717686034777027
5944.0,-0.1866313805255295
5948.0,-0.13170287293019267
5952.0,-0.05385734728059701
5956.0,-0.045245780745106025
5960.0,-0.04658037318381394
5964.0,-0.04970691727357871
5968.0,-0.04361410494653534
5972.0,-0.03682021364278942
5976.0,-0.024759883183816084
5980.0,-0.03521779621643396
5984.0,-0.03683239820159215
5988.0,-0.028208040136469933
5992.0,-0.01651757790494121
5996.0,-0.03780127860330208
6000.0,-0.008183579210343747
6004.0,-0.019930903783679364
6008.0,-0.009062129561019788
6012.0,-0.006499210979256589
6016.0,-0.0006418703218705466
6020.0,-0.00867154243150341
6024.0,-0.0030378967029239777
6028.0,-0.012466843457221096
6032.0,0.001595663808936315
6036.0,-0.006616207692508525
6040.0,0.03481680399364278
6044.0,0.04950525387254529
6048.0,0.05553295432806561
6052.0,0.09259191960582522
6056.0,0.10884794682750532
6060.0,0.14254176628556753
6064.0,0.1466350844597031
6068.0,0.1777458011949755
6072.0,0.2152942956941915
6076.0,0.1992560612347111
6080.0,0.21658311718401294
6084.0,0.241138110269778
6088.0,0.24433944100804622
6092.0,0.27608419664431005
6096.0,0.28850279149238023
6100.0,0.2677070491456094
6104.0,0.28026995371784547
6108.0,0.2914029626356631
6112.0,0.2960460150812352
6116.0,0.3005549376321569
6120.0,0.28458306484659796
6124.0,0.2969182777072685
6128.0,0.2859001855363574
6132.0,0.29023789539456407
6136.0,0.25083598844628535
6140.0,0.2544330676269895
6144.0,0.2798097402170387
6148.0,0.2394679732237195
6152.0,0.22350392015861864
6156.0,0.20028844336267784
6160.0,0.18819310900046565
6164.0,0.16200349154602656
6168.0,0.15448613334480307
6172.0,0.1232780957659104
6176.0,0.11435565835943687
6180.0,0.08917892078305253
6184.0,0.07228700007367878
6188.0,0.04930740427507015
6192.0,0.027414491625927566
6196.0,-0.00886948636187893
6200.0,-0.005290032697964165
6204.0,0.0026503200455528443
6208.0,-0.0146771557441936
6212.0,-0.003060973082812049
6216.0,-0.011071158664567175
6220.0,-0.005260504611056924
6224.0,-0.0019781340952961047
6228.0,0.021935325884534982
6232.0,0.006276859622860907
6236.0,-0.004953575593501042
6240.0,-0.0029650524493348967
6244.0,0.0001525044121583292
6248.0,-0.009936809247833484
6252.0,0.0020705523225386124
6256.0,-0.027420476603952974
6260.0,0.0016558954572545353
6264.0,-0.005047063752243535
6268.0,-0.0037785490768633915
6272.0,0.009747777424586013
6276.0,-0.0007289551539186817
6280.0,0.0010494245117295467
6284.0,-0.00838686908313298
6288.0,-0.007562041117123707
6292.0,0.002664144239688158
6296.0,-0.006540265949853586
6300.0,0.010604569145546668
6304.0,0.007538266317766985
6308.0,0.006666320605612204
6312.0,0.008829494536055554
6316.0,0.007048065979287167
6320.0,0.0010892541079793308
6324.0,0.0006123293414297784
6328.0,0.008036768837742878
6332.0,0.006946442142171288
6336.0,-0.0022590486801949286
6340.0,0.0024079764614097733
6344.0,0.0005742631234402907
6348.0,-0.0005566216824551466
6352.0,-0.027670145175948714
6356.0,-0.0003497145974795028
6360.0,-0.004122947237173268
6364.0,0.005412816331706279
6368.0,0.00015512613467457589
6372.0,-0.021296178370486633
6376.0,-0.02104955882248172
6380.0,0.002447616892987053
6384.0,-0.00532319212279696
6388.0,0.007462675717363689
6392.0,-0.007766506515937145
6396.0,0.007993425460838923
6400.0,-0.008050237711960393
6404.0,-0.006612984897179895
6408.0,0.0009167019301336685
6412.0,-0.016179570209466067
6416.0,9.262727119386417e-05
6420.0,-0.0011097301990872362
6424.0,0.008320731814257132
6428.0,0.01110237654278049
6432.0,0.002580069686904477
6436.0,0.018126974122845706
6440.0,-0.009146840536558627
6444.0,0.018196855840765594
6448.0,0.00477161498501867
6452.0,-0.010961923830169468
6456.0,0.0033105584799027767
6460.0,0.007847116652330574
6464.0,-0.005731826149393848
6468.0,0.010991340241582824
6472.0,0.00352114253681102
6476.0,-0.0073446954337135955
6480.0,-0.007613211234431624
6484.0,0.004096600268507421
6488.0,-0.006068737102689774
6492.0,-0.007066131785155199
6496.0,-0.005510141397734287
6500.0,-0.002785727544121706
6504.0,0.004474635856966462
6508.0,0.0040548950212184265
6512.0,0.004890680706468132
6516.0,0.0007506752516370729
6520.0,0.004282231224510567
6524.0,0.012881309558602597
6528.0,0.001045229363875017
6532.0,0.00699510275062531
6536.0,0.01578605435614685
6540.0,0.0579123829848618
6544.0,0.09033995587978866
6548.0,0.10872486996428207
6552.0,0.13325920666992047
6556.0,0.15579627638311078
6560.0,0.1803305244759188
6564.0,0.22270862289054583
6568.0,0.22263403442001187
6572.0,0.23662452057059058
6576.0,0.22367688384615456
6580.0,0.23836831790229968
6584.0,0.23190132778099223
6588.0,0.22606918044691912
6592.0,0.2380871346079322
6596.0,0.23320022445375788
6600.0,0.19413059373192496
6604.0,0.1715154992994296
6608.0,0.16065171784684298
6612.0,0.13647240233146493
6616.0,0.10426644674980022
6620.0,0.08621671324746347
6624.0,0.06677512034561317
6628.0,0.009668469878339187
6632.0,0.00970027569261839
6636.0,0.0026255736420988892
6640.0,-0.0037989196081907937
6644.0,0.011977277798892981
6648.0,-0.016402645931838003
6652.0,-0.0007913109547782589
6656.0,0.0022451492226073623
6660.0,-0.01387037182392858
6664.0,0.0019669278817582092
6668.0,-0.01120640558240809
6672.0,0.0005574268161054442
6676.0,-0.04202502499310616
6680.0,-0.07190911196512616
6684.0,-0.09294619505191187
6688.0,-0.1382896579639915
6692.0,-0.008855403385389166
6696.0,0.09500232832923926
6700.0,0.18443672315189952
6704.0,0.29379877243016334
6708.0,0.3687103380327529
6712.0,0.4723129189069961
6716.0,0.5842155366554257
6720.0,0.6650400057841372
6724.0,0.7447184195035415
6728.0,0.8635555491699884
6732.0,0.9217264188125136
6736.0,0.8475790452125698
6740.0,0.7487803842992933
6744.0,0.6505742306885623
6748.0,0.5710223220946876
6752.0,0.4790709181926342
6756.0,0.3645875802422534
6760.0,0.2701841183754336
6764.0,0.1798680340334191
6768.0,0.10665891884995904
6772.0,0.0025484951335436466
6776.0,-0.06686749714373523
6780.0,-0.10019058029709244
6784.0,-0.18369622885982256
6788.0,-0.22965008942798948
6792.0,-0.2727973095784936
6796.0,-0.2141701198807387
6800.0,-0.1756902581124184
6804.0,-0.10657708522640741
6808.0,-0.060065733738382955
6812.0,-0.03715568074176262
6816.0,-0.04395836722558848
6820.0,-0.049172062531745546
6824.0,-0.03849677391030928
6828.0,-0.034226628055663566
6832.0,-0.05318069278246495
6836.0,-0.03502020682988721
6840.0,-0.03568047857623929
6844.0,-0.026215043486074098
6848.0,-0.011308523312012313
6852.0,-0.03271327233939874
6856.0,-0.021932623059239133
6860.0,-0.027572875249726587
6864.0,-0.02368286846747422
6868.0,-0.004871120504693447
6872.0,-0.015233050124137816
6876.0,-0.020096962522562347
6880.0,-0.009514870489363964
6884.0,-0.011877962469879929
6888.0,-0.001968155789177873
6892.0,0.007006814475686365
6896.0,0.0009003163571460822
6900.0,0.05607828834853375
6904.0,0.058359976352658216
6908.0,0.08765529208154015
6912.0,0.10381819393095881
6916.0,0.1308312916664261
6920.0,0.15167037401751854
6924.0,0.16657565108407724
6928.0,0.18395645674605143
6932.0,0.188585097350321
6936.0,0.2021560741013253
6940.0,0.2220544097498366
6944.0,0.24206224116122121
6948.0,0.2458167566631878
6952.0,0.25894455101386554
6956.0,0.2553838620901225
6960.0,0.269195968114427
6964.0,0.2805130425872102
6968.0,0.2637907932750636
6972.0,0.2798114779675945
6976.0,0.2987253334048565
6980.0,0.28548400400611457
6984.0,0.2724361058758992
6988.0,0.2737461214147258
6992.0,0.25390751841453063
6996.0,0.24289543284022863
7000.0,0.23173868124672387
7004.0,0.22036352986474267
7008.0,0.21628576147203535
7012.0,0.20111728748225743
7016.0,0.19966511137306525
7020.0,0.15768125189872031
7024.0,0.14952656520099863
7028.0,0.13595295040244387
7032.0,0.10870764652491438
7036.0,0.07446936570542907
7040.0,0.07431282881117397
7044.0,0.03361964372962163
7048.0,0.01767773370656687
7052.0,-0.01399218425955682
7056.0,-0.0007543994729749894
7060.0,-0.003603111118629969
7064.0,-0.011314722357413862
7068.0,-0.0031070552041034395
7072.0,-0.008541881259794451
7076.0,0.01709024202609514
7080.0,-0.013429590733707981
7084.0,-0.000969277790314721
7088.0,-0.0067043847179117325
7092.0,-0.008228222607541495
7096.0,0.002823293159586091
7100.0,0.00476327098238293
7104.0,-0.012013013392965935
7108.0,-0.01006323669304285
7112.0,-0.0031532981977059208
7116.0,-0.00022208031671018972
7120.0,0.00035837089244650515
7124.0,-0.006595019806446187
7128.0,-0.011946049446386688
7132.0,0.005776295850360649
7136.0,0.005912639872890135
7140.0,-0.02010925704680105
7144.0,-0.007217115778923849
7148.0,-0.010373216789593718
7152.0,0.026485597858332887
7156.0,-0.0036578266561676205
7160.0,0.013656272590033144
7164.0,-0.0071998982583755524
7168.0,0.002163971192207011
7172.0,0.01743392904929807
7176.0,-0.007783160347303698
7180.0,0.009689614772414576
7184.0,0.0013491768871824494
7188.0,0.005507741855233656
7192.0,0.004988964861160962
7196.0,0.0013807905554052335
7200.0,0.023072768931344148
7204.0,0.01652016547478188
7208.0,-0.012812129993430359
7212.0,-0.0106481447827071
7216.0,0.010465150552877769
7220.0,0.0027458763959023985
7224.0,0.00210207085334405
7228.0,0.01569582693323981
7232.0,-0.014797648414148993
7236.0,0.006641248946601106
7240.0,-0.003957047059800795
7244.0,-0.018647266488555275
7248.0,0.0007392490054891649
7252.0,-0.0072762102196096655
7256.0,0.005550668480422742
7260.0,-0.00012319692761869538
7264.0,0.0033599586434323076
7268.0,0.00948714019774212
7272.0,-0.007683883061503684
7276.0,-0.0059574994309873975
7280.0,0.006705272776171454
7284.0,0.0004996328834355655
7288.0,-0.008928547148195505
7292.0,-0.011833467647634904
7296.0,0.0070998735628048665
7300.0,-0.0087026803515305
7304.0,0.010220666269777415
7308.0,-0.0039414788703808655
7312.0,-0.0006400319336923711
7316.0,0.0018227231849348333
7320.0,0.009195504813210784
7324.0,-0.004713122665411249
7328.0,0.005312744191693981
7332.0,-0.0005343586229749402
7336.0,0.004210180558343506
7340.0,0.004580007129884839
7344.0,0.011922416269484983
7348.0,0.0025534685172562965
7352.0,-0.00542142082530806
7356.0,0.003774260665410399
7360.0,0.007177305523547893
7364.0,0.010859761861216528
7368.0,-0.001262702047891201
7372.0,-0.00796015482759172
7376.0,0.0286766255858651
7380.0,0.015960287865935667
7384.0,0.010791772686249822
7388.0,-0.0070827890589924775
7392.0,0.019674724388963404
7396.0,0.06045662892336843
7400.0,0.07633523568602892
7404.0,0.10392416560814428
7408.0,0.132846044208805
7412.0,0.13508008640329797
7416.0,0.16760067970189835
7420.0,0.1933729962802634
7424.0,0.20381217752478584
7428.0,0.2125286795461429
7432.0,0.23409376713477936
7436.0,0.23224144851005504
7440.0,0.24560825791510402
7444.0,0.23362190192743082
7448.0,0.22966698699366758
7452.0,0.21532491422250788
7456.0,0.19402843826283395
7460.0,0.17090370429653234
7464.0,0.12869920261571655
7468.0,0.1412641616271165
7472.0,0.12134632802159295
7476.0,0.08784037890070716
7480.0,0.04579150813073969
7484.0,0.030740476133707933
7488.0,-0.01256675240446575
7492.0,0.007701941181507992
7496.0,-0.01730068592461696
7500.0,-0.00808218427429142
7504.0,0.010140477819657429
7508.0,0.023571371843706116
7512.0,-0.009690305503935863
7516.0,-0.016092424222538634
7520.0,0.005636095786099553
7524.0,0.0055722663653690165
7528.0,-0.0013460873073728747
7532.0,-0.04844748691160508
7536.0,-0.07513890957419941
7540.0,-0.11683418199921354
7544.0,-0.16124937361357083
7548.0,0.019870837667409547
7552.0,0.09840753557392948
7556.0,0.18792476296802088
7560.0,0.2782554592952572
7564.0,0.37378288052569436
7568.0,0.4392471255740732
7572.0,0.5737992208088734
7576.0,0.6492124174204041
7580.0,0.7602727187936997
7584.0,0.8471852086742885
7588.0,0.9483105822000241
7592.0,0.8459066738669259
7596.0,0.7675853045719012
7600.0,0.6685556540303964
7604.0,0.5571921872502192
7608.0,0.4461166484081037
7612.0,0.3652107130754322
7616.0,0.2859875159362662
7620.0,0.19604730525895062
7624.0,0.08984556515422795
7628.0,-0.0020138543123313173
7632.0,-0.05790472572631929
7636.0,-0.1188800574124163
7640.0,-0.17380652840086183
7644.0,-0.21815230658156434
7648.0,-0.29087710359670504
7652.0,-0.2275457791230545
7656.0,-0.18624862533826989
7660.0,-0.11394794585380441
7664.0,-0.05310754039939244
7668.0,-0.049501608577146965
7672.0,-0.04447469727020853
7676.0,-0.04004761792431837
7680.0,-0.035394851221487424
7684.0,-0.031096208298189276
7688.0,-0.037208899281002454
7692.0,-0.02563492244092858
7696.0,-0.05120164897928869
7700.0,-0.033375682248772645
7704.0,-0.040800350215471654
7708.0,-0.014833232853145525
7712.0,-0.01352614758330565
7716.0,-0.015929578116913087
7720.0,-0.01952976623292041
7724.0,-0.025428720280787298
7728.0,-0.015452932172067382
7732.0,-0.012508368857990762
7736.0,-0.017201469437681582
7740.0,-0.004306675752825995
7744.0,-0.025398605532752656
7748.0,0.0037323106928630985
7752.0,0.0351825511064332
7756.0,0.06633866127002923
7760.0,0.0737705766881021
7764.0,0.08725209849370852
7768.0,0.11707529734687447
7772.0,0.12472469429432041
7776.0,0.15360001724503813
7780.0,0.17415983936331378
7784.0,0.19310332390405952
7788.0,0.20875044409965143
7792.0,0.21670326953623503
7796.0,0.23931712933095817
7800.0,0.21990935971808315
7804.0,0.259275538404205
7808.0,0.2738966759993258
7812.0,0.2846864951823449
7816.0,0.26066394787214514
7820.0,0.30369873968594935
7824.0,0.28724187654412553
7828.0,0.2892750227562409
7832.0,0.28427557275647874
7836.0,0.2957518348831044
7840.0,0.2839747398232362
7844.0,0.28676543852604736
7848.0,0.2629763126329329
7852.0,0.27549485367716997
7856.0,0.2627156034500377
7860.0,0.2423581226195045
7864.0,0.22387490173805838
7868.0,0.20817171328601292
7872.0,0.1900391390197545
7876.0,0.18105828444283373
7880.0,0.17206100555194412
7884.0,0.13797607233421136
7888.0,0.10504110323982806
7892.0,0.09222560137138124
7896.0,0.06831976228515463
7900.0,0.04852084755840552
7904.0,0.022816143687684424
7908.0,-0.004748080981195355
7912.0,-0.010267621511827228
7916.0,0.001661205313901401
7920.0,0.010110855282670951
7924.0,-0.006125760298498035
7928.0,0.008517025194661451
7932.0,0.003441878853397094
7936.0,-7.452506149053522e-05
7940.0,0.0008142617314496056
7944.0,0.010771569863933548
7948.0,0.00934918924052924
7952.0,-0.005514749634111949
7956.0,-0.004714270193270657
7960.0,0.004085572924448839
7964.0,-0.005536049453648975
7968.0,0.001887129045849172
7972.0,0.0076589633951784876
7976.0,-0.005056240398051141
7980.0,0.002910482846213791
7984.0,-0.0031591877125678523
7988.0,0.014032503461683516
7992.0,-0.0012707387273992517
7996.0,0.019120081017679716
8000.0,-0.004620695548589651
8004.0,0.0010399479981626025
8008.0,0.004085827152772706
8012.0,-0.003736070453355991
8016.0,-0.006019227848086387
8020.0,-0.008999073158637984
8024.0,0.001123997623758472
8028.0,0.010103249356620903
8032.0,-0.007620639830399075
8036.0,0.012751795203771447
8040.0,0.011167939623859683
8044.0,0.012497185180951819
8048.0,-0.00949719758164856
8052.0,-0.007406014045591515
8056.0,-0.0012429584146160574
8060.0,-0.0017997462561315297
8064.0,0.0075606146197503546
8068.0,0.014329999440803088
8072.0,0.016902263212680034
8076.0,-0.005238466403870874
8080.0,0.002298678977409398
8084.0,0.010169962295413403
8088.0,-0.016085881969343234
8092.0,-0.01658357397921855
8096.0,-0.016825355469643453
8100.0,-0.0057929526281315655
8104.0,-0.00497336528440492
8108.0,0.021088655272156382
8112.0,0.016327326593076175
8116.0,-0.004883421834307382
8120.0,0.0002404645957385626
8124.0,-0.008169853024639497
8128.0,-0.01763464687077844
8132.0,0.013911716748118644
8136.0,-0.0023882753690415304
8140.0,0.003715567357434715
8144.0,0.0017309017051893956
8148.0,0.004082965820107435
8152.0,-0.00044175258459863535
8156.0,-0.003665025560861336
8160.0,-0.007972161013364435
8164.0,0.00946457059367432
8168.0,-0.009625022599085821
8172.0,-0.015548252662226945
8176.0,-0.004696792899917039
8180.0,-0.0007016970744060058
8184.0,0.0017269276607453125
8188.0,-0.0016977839926130588
8192.0,-0.00025118604881625863
8196.0,0.015498221958772183
8200.0,0.009009616721240453
8204.0,0.006521380387252287
8208.0,-0.0026294464295206297
8212.0,-0.006580410478508004
8216.0,0.00840947381093259
8220.0,0.019720357595515145
8224.0,0.00626145624741655
8228.0,-0.0005356315504161215
8232.0,0.015071705612304455
8236.0,-0.0029685823632287617
8240.0,-0.01772313852225265
8244.0,0.00240897643486741
8248.0,0.03913788100877114
8252.0,0.06852205410750746
8256.0,0.08610277686664305
8260.0,0.143471224157832
8264.0,0.138791511536688
8268.0,0.16978263799282925
8272.0,0.20397937899334692
8276.0,0.21163429113194215
8280.0,0.24110197603515635
8284.0,0.2728671201737248
8288.0,0.26086258642264554
8292.0,0.2737414093016688
8296.0,0.2595852087107862
8300.0,0.2562896473987716
8304.0,0.25333221643359116
8308.0,0.26404828987693685
8312.0,0.235291000397936
8316.0,0.20849531009334074
8320.0,0.18846039881871043
8324.0,0.1624412196500569
8328.0,0.12318192884262409
8332.0,0.1276012471306958
8336.0,0.059278211309116154
8340.0,0.02789593052291365
8344.0,-0.003969809237697193
8348.0,-0.009535831136604852
8352.0,-0.012056900378569352
8356.0,-0.004664949139049233
8360.0,0.010211403120230786
8364.0,0.006009541303761998
8368.0,-0.01269259862545913
8372.0,0.002125158073952166
8376.0,-0.011203834379023633
8380.0,-0.016883704010327818
8384.0,-0.0014708955471370206
8388.0,-0.038908694698528985
8392.0,-0.09153630832350036
8396.0,-0.12969730841520907
8400.0,-0.1564771377971717
8404.0,0.010257788151042611
8408.0,0.11093288997917024
8412.0,0.21550914982146685
8416.0,0.32020939037943347
8420.0,0.4420921499180202
8424.0,0.5661333172013472
8428.0,0.6753034895322177
8432.0,0.7689174540701201
8436.0,0.8797135715581845
8440.0,0.9684712402645341
8444.0,1.1020516706559973
8448.0,1.0057142620442445
8452.0,0.877511622794288
8456.0,0.7688657104274328
8460.0,0.651963534129744
8464.0,0.5598926591285165
8468.0,0.43683165702882193
8472.0,0.35096433271718636
8476.0,0.21614443300228986
8480.0,0.11072636696801634
8484.0,-0.004799851548774885
8488.0,-0.06118445785175757
8492.0,-0.12678446470930668
8496.0,-0.20386552649425052
8500.0,-0.26531100916899764
8504.0,-0.34668564153026155
8508.0,-0.27807642732465465
8512.0,-0.1968213257444903
8516.0,-0.14072913277211724
8520.0,-0.06867392025356568
8524.0,-0.059805018603630064
8528.0,-0.04159690747096521
8532.0,-0.05178833873715241
8536.0,-0.07848220687550578
8540.0,-0.04064279992699795
8544.0,-0.03279534792758088
8548.0,-0.04349655513093257
8552.0,-0.038473128887933125
8556.0,-0.02372409484064104
8560.0,-0.04391889444917276
8564.0,-0.028338518299103988
8568.0,-0.021604178765748615
8572.0,-0.025065970318993547
8576.0,-0.011096149734594654
8580.0,-0.008035531177392245
8584.0,-0.032103065766156846
8588.0,-0.01246868959228925
8592.0,0.011430592866575837
8596.0,-0.0016023706427962742
8600.0,0.005865694390064624
8604.0,-0.012669994733017114
8608.0,0.032754489447621556
8612.0,0.043832524512306785
8616.0,0.0761451357469776
8620.0,0.08153995932427696
8624.0,0.11690409569463037
8628.0,0.13652039720052095
8632.0,0.1642204060225838
8636.0,0.21548286205321945
8640.0,0.22505633363495217
8644.0,0.25480733819949836
8648.0,0.24623067346676053
8652.0,0.2826079800655248
8656.0,0.30401091985775536
8660.0,0.28042757151462555
8664.0,0.29997757039434636
8668.0,0.3338483891222721
8672.0,0.3246638346056176
8676.0,0.3234876909226365
8680.0,0.34349268681301215
8684.0,0.3478547961098921
8688.0,0.3337073819340787
8692.0,0.3183137895262327
8696.0,0.3286858397407001
8700.0,0.32295468492915513
8704.0,0.2986883075501448
8708.0,0.3039795910612172
8712.0,0.2932848671513644
8716.0,0.26739707942049384
8720.0,0.28553496613968515
8724.0,0.22279078260721658
8728.0,0.23013676156904922
8732.0,0.21622845274958388
8736.0,0.19051540175541992
8740.0,0.1553895506401782
8744.0,0.12698590864672818
8748.0,0.11233794092192001
8752.0,0.09425062437956101
8756.0,0.06382193197947153
8760.0,0.015055188182053827
8764.0,-0.01013163387651056
8768.0,0.0055369657286950084
8772.0,0.004601712056844293
8776.0,0.0016049979080788662
8780.0,-0.014851031380922716
8784.0,0.02010263835454951
8788.0,0.0057356390787224225
8792.0,0.0017259267680187276
8796.0,-0.003324904098955871
8800.0,0.01683517398751207
8804.0,-0.012515359720916943
8808.0,0.01444987193355436
8812.0,-0.0048192332019967535
8816.0,-0.011812983524082533
8820.0,-0.010930367627797002
8824.0,-0.01003128742638956
8828.0,-0.0030116209268655596
8832.0,0.0013735533916921802
8836.0,0.015000147874858932
8840.0,-0.007774896206471827
8844.0,0.005863718417760675
8848.0,-0.00875378819787659
8852.0,0.007743031066170937
8856.0,0.010423358580906154
8860.0,0.014568800905400508
8864.0,-0.01837881354240492
8868.0,-0.006727898084153674
8872.0,0.01819787477222434
8876.0,0.0024670989819535858
8880.0,-0.0005983082343188727
8884.0,-0.01801699482827631
8888.0,0.007579697571516819
8892.0,-0.011607288837196672
8896.0,-0.0016400929169565087
8900.0,0.01758451867333157
8904.0,-0.018218988789424077
8908.0,0.014274234190574019
8912.0,-0.007639459372834891
8916.0,-0.02266908104365797
8920.0,0.0049340554391604655
8924.0,0.011137663953611626
8928.0,-0.027730619110555514
8932.0,0.01580598051639221
8936.0,0.004555822093552943
8940.0,0.02338091475874156
8944.0,-0.007794326742017645
8948.0,0.012790554516646827
8952.0,-0.00247255358406224
8956.0,0.0028327380252996964
8960.0,0.000748934865262879
8964.0,-0.006433027463106438
8968.0,0.0025201224959843574
8972.0,-0.005675718144101686
8976.0,-0.011470269336962153
8980.0,-0.0175744585155081
8984.0,0.016106314300304066
8988.0,0.006687727988898818
8992.0,-0.01050091096320497
8996.0,-0.003671896281375316
9000.0,-0.015200261668659634
9004.0,0.014682275936583158
9008.0,-0.006038561214381755
9012.0,-0.00940991521103911
9016.0,-0.012188926827206351
9020.0,0.008624338408025269
9024.0,-0.0018486575880812756
9028.0,-0.00601997776142112
9032.0,-0.00499036112591234
9036.0,-0.004594579032235553
9040.0,-0.0005531439106424576
9044.0,-0.0047910623220495845
9048.0,-0.0035783618120516537
9052.0,0.01816005483823854
9056.0,0.0012769079029636957
9060.0,0.0066118735820025875
9064.0,-0.02229258097132535
9068.0,-0.009597696686656821
9072.0,0.0036171001284906663
9076.0,-0.004438235352568016
9080.0,0.004188374939667457
9084.0,-0.008074725791487042
9088.0,0.010145117066938231
9092.0,0.009063271646723834
9096.0,-0.023068929483324837
9100.0,0.013594100195632912
9104.0,0.03855253553623536
9108.0,0.06338131272357966
9112.0,0.09829021133170456
9116.0,0.13286386688851817
9120.0,0.1640199134898324
9124.0,0.19821872994527498
9128.0,0.21722412938579222
9132.0,0.21847292692077772
9136.0,0.2555538366174642
9140.0,0.26151693250461205
9144.0,0.25284617353328853
9148.0,0.26724015768268594
9152.0,0.2832089591072304
9156.0,0.2525128580992001
9160.0,0.2724008187067555
9164.0,0.24992073222061703
9168.0,0.24492436689984276
9172.0,0.20314173322014498
9176.0,0.18179620611188832
9180.0,0.152483439565428
9184.0,0.12467998961340965
9188.0,0.11269460257828909
9192.0,0.06890221156551138
9196.0,0.03622408503743554
9200.0,0.0012772268624295137
9204.0,-0.0009212701010333232
9208.0,-0.011497168412258117
9212.0,0.008934091446121764
9216.0,-0.013933056284478685
9220.0,-0.003139389583662426
9224.0,-0.01057476900937513
9228.0,0.004195454038371837
9232.0,-0.015387255037971689
9236.0,0.0013761388077709253
9240.0,0.0049596122466811525
9244.0,-0.037106776554136904
9248.0,-0.09970290661089859
9252.0,-0.14940896134415285
9256.0,-0.15655377334774498
9260.0,-0.00021915336446797702
9264.0,0.12517475333998762
9268.0,0.21094777956300023
9272.0,0.34239009892350564
9276.0,0.44077607420230197
9280.0,0.5412416584570463
9284.0,0.656042494679346
9288.0,0.75481600838828
9292.0,0.8811736945461197
9296.0,0.9850953166624127
9300.0,1.0987491524692836
9304.0,0.9627489963724484
9308.0,0.8684671644701101
9312.0,0.7667355264434873
9316.0,0.6638579712078339
9320.0,0.5286676245882107
9324.0,0.4400675124448845
9328.0,0.3271072739270492
9332.0,0.20678549665772947
9336.0,0.11839741493477073
9340.0,0.009670222098524337
9344.0,-0.0746407352915362
9348.0,-0.13014319628241677
9352.0,-0.1834173888833567
9356.0,-0.24858768871582582
9360.0,-0.3062142826127502
9364.0,-0.2752128913160988
9368.0,-0.1907628907860344
9372.0,-0.09528704761097206
9376.0,-0.06545623701822839
9380.0,-0.03277416357717856
9384.0,-0.038676100534907984
9388.0,-0.04369028063614268
9392.0,-0.04059192330096549
9396.0,-0.03594303804409367
9400.0,-0.03686744752464411
9404.0,-0.02569690718274818
9408.0,-0.0391205670496607
9412.0,-0.04422647638457653
9416.0,-0.045813606556542624
9420.0,-0.05757273201778688
9424.0,-0.017527842837355066
9428.0,-0.03266039557103878
9432.0,-0.03390866860738435
9436.0,-0.013749920519453764
9440.0,-0.023273645465897264
9444.0,0.009282512620643944
9448.0,-0.0032709447507859573
9452.0,0.010105180221984127
9456.0,-0.004497541191718326
9460.0,-0.008145485987828043
9464.0,0.027149835474572295
9468.0,0.04523279848893244
9472.0,0.0844947087873622
9476.0,0.09160658113486132
9480.0,0.13214785686699596
9484.0,0.14899700505503136
9488.0,0.16125387520126552
9492.0,0.20263259859968405
9496.0,0.20278027531230533
9500.0,0.2018215037883986
9504.0,0.24561127458020857
9508.0,0.24830054176491606
9512.0,0.26884563467247985
9516.0,0.29851791266714134
9520.0,0.28673310492701676
9524.0,0.30880804175337817
9528.0,0.31054233461417263
9532.0,0.31386190336523856
9536.0,0.32184358184440304
9540.0,0.3278199551378084
9544.0,0.312553439796315
9548.0,0.3167106708883263
9552.0,0.3020635441763417
9556.0,0.31245440247592915
9560.0,0.28505016291052176
9564.0,0.27930998184479905
9568.0,0.28288841585518654
9572.0,0.2667541574911269
9576.0,0.22751913719725592
9580.0,0.2328691890568197
9584.0,0.19954057115018772
9588.0,0.17458084442560307
9592.0,0.1625059272100041
9596.0,0.13671956759835116
9600.0,0.12847013245634978
9604.0,0.0899380302141671
9608.0,0.09245381845096427
9612.0,0.03881100316907649
9616.0,0.009895849904838971
9620.0,0.013250331729980271
9624.0,0.007576734957528801
9628.0,0.020534062052125664
9632.0,0.002973451638970985
9636.0,0.008686760059208766
9640.0,-0.01058498644297384
9644.0,0.004905972566961201
9648.0,0.002698078037573966
9652.0,-0.006897952278526709
9656.0,0.0016659346171749936
9660.0,0.011532705830340991
9664.0,-0.015091208230602398
9668.0,-0.015349081124232309
9672.0,0.006490781636792615
9676.0,-0.012041094349833014
9680.0,0.0020796526274392524
9684.0,-0.013448810505015013
9688.0,-0.0027659810007582297
9692.0,0.012681862736713206
9696.0,-0.002226206512310234
9700.0,-0.001165201369097192
9704.0,-0.006104824764276091
9708.0,-0.0009481655937874372
9712.0,0.01945073268009308
9716.0,-0.003285803868530729
9720.0,-0.009045838619148254
9724.0,0.0015234561333974323
9728.0,0.006357711954046087
9732.0,-0.004179069715477259
9736.0,-0.003978550489023392
9740.0,0.007718456647857309
9744.0,0.003691340466635662
9748.0,-0.000843789292163414
9752.0,0.008320843803157474
9756.0,0.0043070315864207655
9760.0,-0.017812457568338567
9764.0,0.002314060132767192
9768.0,-0.006831686866980401
9772.0,-0.0038438047427615534
9776.0,-0.0007200605303798981
9780.0,0.019381198089229043
9784.0,-0.0007146792195288134
9788.0,0.0024682719440796037
9792.0,0.002177104346815799
9796.0,0.00988370629955839
9800.0,0.0010143679497345878
9804.0,-0.009293271546346836
9808.0,-0.0020018063015649168
9812.0,0.004658233873212892
9816.0,0.010823660708893885
9820.0,0.011542368160940192
9824.0,-0.011978584524667157
9828.0,0.008796373095553176
9832.0,-0.0053067695128778385
9836.0,-0.002212881463915128
9840.0,0.00941588129074897
9844.0,-0.010864757652141899
9848.0,0.00553459891391046
9852.0,0.014458912343054046
9856.0,-0.008017874217555582
9860.0,0.008894051778365105
9864.0,-0.00012836929449085589
9868.0,0.0172516461400174
9872.0,0.01683790470421806
9876.0,-0.011159937121125703
9880.0,0.006942236970592727
9884.0,-0.0012793981190904235
9888.0,0.004691996300741279
9892.0,0.011579413529836336
9896.0,-0.015051091227393806
9900.0,0.00023212794420484007
9904.0,-0.0012309040708575688
9908.0,0.004396125647081871
9912.0,-0.0011838168088314847
9916.0,-0.004952251131660635
9920.0,0.005783906652833096
9924.0,-0.008305101605611511
9928.0,0.01422955870997293
9932.0,0.012548858313150418
9936.0,0.0100442445469276
9940.0,0.0038683168884547452
9944.0,0.011016034005582286
9948.0,0.009245916537221446
9952.0,-0.0031546661876425616
9956.0,0.01433445821131511
9960.0,0.029153710636850794
9964.0,0.08123292849426292
9968.0,0.10809464933726091
9972.0,0.12489093424325226
9976.0,0.1634813227092776
9980.0,0.18057585545246532
9984.0,0.18876258300480267
9988.0,0.22614460721870855
9992.0,0.2312368704879427
9996.0,0.2527555190520991
10000.0,0.24818118802386382
10004.0,0.26324635279251674
10008.0,0.2617750548869967
10012.0,0.24321460906968193
10016.0,0.2427274611323303
10020.0,0.22911396785714658
10024.0,0.20239522670518556
10028.0,0.17579414594086815
10032.0,0.1828100156322728
10036.0,0.1450964046979014
10040.0,0.09796421664410444
10044.0,0.09868482698891955
10048.0,0.07203489829646843
10052.0,0.02831251543426269
10056.0,0.02261783238084514
10060.0,-0.006369608890373765
10064.0,-0.010773215542334893
10068.0,-0.007729075186735751
10072.0,0.011098893399272409
10076.0,-0.0021937553539496755
10080.0,0.020887570540351945
10084.0,0.01460826247762403
10088.0,0.017988571298222445
10092.0,-0.008750861966234896
10096.0,-0.005151336955962854
10100.0,-0.02750726993878727
10104.0,-0.058933604230774005
10108.0,-0.11527488343424261
10112.0,-0.16372807245884072
10116.0,-0.0035928551138342917
10120.0,0.11510026447657762
10124.0,0.201012200295387
10128.0,0.3050264874191116
10132.0,0.3934300779731476
10136.0,0.5125784982108138
10140.0,0.585819595185835
10144.0,0.7003097352294841
10148.0,0.8159641971023652
10152.0,0.9086086214341623
10156.0,1.0112513075680996
10160.0,0.9021920118237512
10164.0,0.8026840500278032
10168.0,0.7076566811579587
10172.0,0.5795941700119033
10176.0,0.49998004394052253
10180.0,0.39183528182021876
10184.0,0.3124789914131902
10188.0,0.1827312956716371
10192.0,0.10126307467843355
10196.0,0.007676350600471165
10200.0,-0.0754863826885567
10204.0,-0.12136005796186945
10208.0,-0.17763735728719293
10212.0,-0.23499283529750073
10216.0,-0.29085695415884977
10220.0,-0.2283655015396859
10224.0,-0.1966767267795212
10228.0,-0.10605178229803289
10232.0,-0.06688969319979805
10236.0,-0.055028842319782514
10240.0,-0.05019227132954911
10244.0,-0.04342559772710726
10248.0,-0.04535962587187708
10252.0,-0.04056262403197168
10256.0,-0.024194603808202857
10260.0,-0.047343016382442794
10264.0,-0.022172034928825145
10268.0,-0.027398722107813894
10272.0,-0.03472840374591041
10276.0,-0.02647623371435183
10280.0,-0.001942533296644875
10284.0,-0.02120158475924439
10288.0,-0.023816478621836976
10292.0,-0.02673382237214606
10296.0,-0.0018698643072943767
10300.0,-0.010087782697893804
10304.0,0.00895481989579385
10308.0,0.004790873209405115
10312.0,0.0002638305698085
10316.0,0.005786004560920491
10320.0,0.01790480660845185
10324.0,0.04017057725914883
10328.0,0.058014379429021316
10332.0,0.09203545017282198
10336.0,0.13011537662905498
10340.0,0.12214596256654886
10344.0,0.1375834939475664
10348.0,0.16033244784533718
10352.0,0.1864198715277428
10356.0,0.21726167069653324
10360.0,0.24062704970545398
10364.0,0.23330676858654065
10368.0,0.22667589083540204
10372.0,0.2633356368935735
10376.0,0.2765771262441092
10380.0,0.2776565979733962
10384.0,0.2976305337924836
10388.0,0.28578860647575466
10392.0,0.31384075465915834
10396.0,0.29431852591605084
10400.0,0.2833313071396036
10404.0,0.2736137755632167
10408.0,0.27494088077186557
10412.0,0.29115472844429086
10416.0,0.2600057703911649
10420.0,0.24228961866366167
10424.0,0.245840117052198
10428.0,0.24374418283636362
10432.0,0.23444035514409892
10436.0,0.19716159194257893
10440.0,0.20401835041233743
10444.0,0.18991295068295003
10448.0,0.14918568502270638
10452.0,0.13058149852098752
10456.0,0.11931561112426448
10460.0,0.0906134266785963
10464.0,0.07094899126100622
10468.0,0.05829172029455919
10472.0,0.015383885894387472
10476.0,0.0020120719097200973
10480.0,-0.004047608223577102
10484.0,-0.014750340871810106
10488.0,-0.017035793176536862
10492.0,-0.00883694836098633
10496.0,0.014501403951331584
10500.0,-0.0014215626216303142
10504.0,0.006279814929022366
10508.0,0.00022815260283383279
10512.0,0.006753150460336008
10516.0,0.004009070309384579
10520.0,0.008467557607449073
10524.0,0.0008795651983858255
10528.0,0.007416519083385903
10532.0,0.0027401357807589465
10536.0,0.012168249644919013
10540.0,-0.01293784486179407
10544.0,0.00125816863553879
10548.0,0.0029103870278270887
10552.0,-0.00961916616736178
10556.0,-0.010342717553802604
10560.0,-0.008569732742527335
10564.0,-0.009936265124253094
10568.0,0.0065469486814034045
10572.0,0.020462759330627616
10576.0,0.0094471734878441
10580.0,-0.01199940785364171
10584.0,0.005280448523033575
10588.0,-0.015115426772383402
10592.0,0.008939075270503909
10596.0,0.006215863109736326
10600.0,-0.009816929967718727
10604.0,0.003801776014084564
10608.0,0.0016053091789028167
10612.0,-0.02549024868205393
10616.0,0.007723789665997011
10620.0,-0.00999680008582027
10624.0,-0.009655926702893072
10628.0,-0.01274290191022967
10632.0,-0.007014036077125779
10636.0,0.00501919478696402
10640.0,-0.006720132150099364
10644.0,-0.00690675570648202
10648.0,0.004066619152888845
10652.0,-0.004061997528551248
10656.0,-0.010589090298202021
10660.0,-0.0010589984357124676
10664.0,0.010309032414428312
10668.0,0.0007293122717495488
10672.0,-0.007223342116780181
10676.0,0.005365008343786356
10680.0,0.0028640236943651394
10684.0,0.0008611059867227768
10688.0,0.008622067622982042
10692.0,0.009088402213912557
10696.0,-0.025352469737437686
10700.0,-0.007437444164442205
10704.0,0.0016540120143900792
10708.0,0.0014367938833846274
10712.0,0.0018003817916343334
10716.0,-0.0014449750401255676
10720.0,-0.0009434892469044553
10724.0,-0.001082990506115992
10728.0,0.009552470236904097
10732.0,0.002677308881786682
10736.0,-0.009445475404121325
10740.0,0.004473634181892065
10744.0,0.0027230412807773283
10748.0,-0.003947758744097989
10752.0,-0.013101678949140614
10756.0,0.0072350723847298265
10760.0,-0.01713776057558752
10764.0,0.0033450649722706577
10768.0,-0.004259619919003048
10772.0,-0.013877852093582686
10776.0,-0.00013029099096255922
10780.0,0.0056090736619111405
10784.0,-0.010655757582397216
10788.0,-0.005340069713168523
10792.0,0.0041854661607998575
10796.0,-0.007429923578721961
10800.0,0.01769798387813299
10804.0,0.0005421866916560375
10808.0,-0.0011107227139337697
10812.0,0.000543532076713156
10816.0,0.029253948692732328
10820.0,0.044087556267190194
10824.0,0.07508325784996547
10828.0,0.11766430349681206
10832.0,0.1300877057622968
10836.0,0.15552279817103584
10840.0,0.18626475548380292
10844.0,0.19137776373684803
10848.0,0.21037997283692667
10852.0,0.21683408876010463
10856.0,0.24017181618466105
10860.0,0.2429383050358421
10864.0,0.24441271428011682
10868.0,0.2495744486031793
10872.0,0.2287341520387006
10876.0,0.20468263904497108
10880.0,0.18934390100433568
10884.0,0.19196776649315442
10888.0,0.14991111164433824
10892.0,0.14123422256373458
10896.0,0.11546239234658631
10900.0,0.10490668716737324
10904.0,0.05586509889249067
10908.0,0.023320050760122623
10912.0,0.0069740130481404225
10916.0,0.011575330168435666
10920.0,0.007071464993933942
10924.0,-0.0021530708042257606
10928.0,0.0004522404234157949
10932.0,-0.022718096183309364
10936.0,0.003099615771051949
10940.0,0.012950428126371405
10944.0,0.007993594338080268
10948.0,-0.006415979447715106
10952.0,0.0038713084376412995
10956.0,-0.04554631669548112
10960.0,-0.07124419983188482
10964.0,-0.1134850773316923
10968.0,-0.1564503589513201
10972.0,-0.006226502981015715
10976.0,0.10293504057001578
10980.0,0.19606181676748333
10984.0,0.2734612557516187
10988.0,0.37198462255471954
10992.0,0.47005463380634094
10996.0,0.5826305214932448
11000.0,0.6606558478323492
11004.0,0.7715468900632139
11008.0,0.8317534306860185
11012.0,0.934130953604297
11016.0,0.8358707467747961
11020.0,0.7446003755388955
11024.0,0.6564838129232641
11028.0,0.564828610956586
11032.0,0.47906660289456704
11036.0,0.3717364224766834
11040.0,0.29274696722996757
11044.0,0.19212703278938795
11048.0,0.10712863466524263
11052.0,-0.008234564741287548
11056.0,-0.06011362668659026
11060.0,-0.11177078465022851
11064.0,-0.18092759110999282
11068.0,-0.2203833796402948
11072.0,-0.27715198708805894
11076.0,-0.22301031597783122
11080.0,-0.16439375374465634
11084.0,-0.09208832105240011
11088.0,-0.04420733903638479
11092.0,-0.04784224395785429
11096.0,-0.04388012465290603
11100.0,-0.04397461303600058
11104.0,-0.043570416543161725
11108.0,-0.042724330298688044
11112.0,-0.02473664061726925
11116.0,-0.01963998302750723
11120.0,-0.036240243308746166
11124.0,-0.025600463419748132
11128.0,-0.01925620199137956
11132.0,-0.01482030191857525
11136.0,-0.022271442453575003
11140.0,-0.01745897019167474
11144.0,-0.020289764883857034
11148.0,-0.02264498186130426
11152.0,-0.01863542232366374
11156.0,-0.021036568823594056
11160.0,-0.015031407384315548
11164.0,-0.005999030272531172
11168.0,-0.016656301019127153
11172.0,0.004492287041474451
11176.0,0.029422400338095286
11180.0,0.0405148976727728
11184.0,0.0637881390615917
11188.0,0.08260034274259795
11192.0,0.10928380495407933
11196.0,0.12846657750270588
11200.0,0.14290051253347844
11204.0,0.1848893885825376
11208.0,0.18818692123985212
11212.0,0.2029858898846425
11216.0,0.23090517202987207
11220.0,0.2266178205927575
11224.0,0.25495632404410307
11228.0,0.2508063784700345
11232.0,0.2638516228708237
11236.0,0.2647758791372658
11240.0,0.29199999999299714
11244.0,0.27962511555061254
11248.0,0.2944981756375045
11252.0,0.28284919776443246
11256.0,0.2989152841843334
11260.0,0.271992405825999
11264.0,0.2773229834281858
11268.0,0.27115274465776895
11272.0,0.2742837151116894
11276.0,0.26064193928525947
11280.0,0.2432319946723888
11284.0,0.21461427614727852
11288.0,0.20931378446192847
11292.0,0.19392538219956912
11296.0,0.18827225859866242
11300.0,0.17703130118122645
11304.0,0.15010829038248216
11308.0,0.12492740343019877
11312.0,0.11554713681659436
11316.0,0.08889535980588491
11320.0,0.054905839483203746
11324.0,0.03819514763718288
11328.0,0.015139940222366921
11332.0,0.009418678170781012
11336.0,-0.0073981343981718555
11340.0,-0.019076361787435867
11344.0,-0.005418710239556794
11348.0,0.004889318854184609
11352.0,0.006029672572628558
11356.0,0.019735305909715194
11360.0,0.016868279659876778
11364.0,-0.018662464365131613
11368.0,0.0024523411274631293
11372.0,0.006425429397562497
11376.0,0.00775218175610784
11380.0,-6.299919252214852e-05
11384.0,-0.001227423000350786
11388.0,0.011261134470334288
11392.0,0.013535163196859686
11396.0,0.009496995010279202
11400.0,0.01879498590024781
11404.0,0.002229135864514145
11408.0,0.003943861699020434
11412.0,0.0009280048188333706
11416.0,-0.005519205327409362
11420.0,0.0049794570962742426
11424.0,-0.013995765679272364
11428.0,0.011071646899724803
11432.0,0.010027613324443088
11436.0,-0.01087736903119664
11440.0,0.004459725713870023
11444.0,0.029214157921288095
11448.0,0.0017359095974911335
11452.0,-0.0028961050704648036
11456.0,-0.009915105991350339
11460.0,-0.0020312940994862048
11464.0,0.014884184384577302
11468.0,-0.010073845365592785
11472.0,0.0011827794426733504
11476.0,-0.004880771781913371
11480.0,-0.0014706437713549187
11484.0,-0.011775591181616002
11488.0,-0.01118060552328733
11492.0,0.0020034994990021458
11496.0,0.006482975568313643
11500.0,0.0053723674704690225
11504.0,-0.0014407843816149125
11508.0,0.008709728494697339
11512.0,0.006883251112801447
11516.0,-0.0028041780908400166
11520.0,-0.0033593257021261908
11524.0,-0.00787124431831907
11528.0,-0.018714236957800903
11532.0,0.008202017255427607
11536.0,0.012481533562834149
11540.0,-0.015955787534719927
11544.0,0.012361920780797796
11548.0,0.007228959009578861
11552.0,0.008755364015653943
11556.0,-0.0031899240372393264
11560.0,-0.003453933147196536
11564.0,0.007781428401019114
11568.0,0.009563200084134046
11572.0,-0.00902179295308384
11576.0,0.0007152770217040535
11580.0,0.005342045370912869
11584.0,0.008621759278536577
11588.0,0.0031816404371449664
11592.0,0.015825154460438712
11596.0,0.0029574590183116404
11600.0,-0.009163784924287
11604.0,-0.0076311934518112435
11608.0,0.0061703522846948125
11612.0,-0.008376728981457327
11616.0,-0.007992858872060747
11620.0,0.011437516288639614
11624.0,-0.001277755382208728
11628.0,-0.027669026965025986
11632.0,0.003962181745205873
11636.0,-0.006686226493192979
11640.0,-0.005631613515525224
11644.0,0.004306668623430413
11648.0,-0.007597602316622478
11652.0,0.014717684323958712
11656.0,0.009092795605652767
11660.0,-0.011704995672522055
11664.0,0.00763186889897252
11668.0,-0.018213553319520404
11672.0,0.03165919819184683
11676.0,0.053727022075669095
11680.0,0.09228821238461067
11684.0,0.12696322414381675
11688.0,0.14392060402690252
11692.0,0.16860750160488544
11696.0,0.19221144710345736
11700.0,0.2054797538055102
11704.0,0.22181550747982967
11708.0,0.229355950698268
11712.0,0.23205740100796823
11716.0,0.24402614839743667
11720.0,0.23903700534359174
11724.0,0.2441075526738718
11728.0,0.21774883029938824
11732.0,0.23594336246844233
11736.0,0.20714593631473324
11740.0,0.1902735031966226
11744.0,0.17272996174813118
11748.0,0.1281933784915645
11752.0,0.12185544290104383
11756.0,0.0895616772406118
11760.0,0.05676532187131059
11764.0,0.041860660505400826
11768.0,0.009870248752620013
11772.0,-0.0025906037262436983
11776.0,-0.006040156470482748
11780.0,0.004419276144237949
11784.0,-0.0036872684018793424
11788.0,-1.9529343658760133e-05
11792.0,-0.006269475801503153
11796.0,0.004557440566104076
11800.0,0.012808455565096145
11804.0,0.00234261982354433
11808.0,0.005950638150848266
11812.0,-0.02897759814805174
11816.0,-0.08089074283656561
11820.0,-0.12254484784630172
11824.0,-0.17028410982215889
11828.0,-0.002058470141949151
11832.0,0.11864547465847253
11836.0,0.18748017499650735
11840.0,0.29718238729077845
11844.0,0.39568961564489263
11848.0,0.48401334861757006
11852.0,0.608489684321958
11856.0,0.696639632953494
11860.0,0.777479430599139
11864.0,0.908183475286907
11868.0,1.0111789654846426
11872.0,0.9162800612048516
11876.0,0.7867433183326439
11880.0,0.6858728366844488
11884.0,0.5876801288733371
11888.0,0.5110926727618574
11892.0,0.3979444840055987
11896.0,0.2961090380064681
11900.0,0.21029321441005075
11904.0,0.11181847802198414
11908.0,-0.022276512295963023
11912.0,-0.07413647949187269
11916.0,-0.11270972837837841
11920.0,-0.17639986876159094
11924.0,-0.24885439336620996
11928.0,-0.312015967396028
11932.0,-0.24113246469587754
11936.0,-0.17625251453223179
11940.0,-0.13081947667657204
11944.0,-0.07252158106480913
11948.0,-0.055985585208498376
11952.0,-0.050955109372990144
11956.0,-0.04645361857129433
11960.0,-0.030572459365891327
11964.0,-0.02748501638736169
11968.0,-0.030889014976014803
11972.0,-0.04273650460494906
11976.0,-0.055555106754145246
11980.0,-0.031443307470604434
11984.0,-0.025768386687802902
11988.0,-0.03419637502088714
11992.0,-0.028460437259859767
11996.0,-0.02456786014916309
12000.0,-0.017774506682573517
12004.0,0.002427360511771861
12008.0,-0.006469134034830488
12012.0,-0.021304782422596084
12016.0,-0.025083995036594947
12020.0,-0.023254799668963936
12024.0,0.00950137906918131
12028.0,0.002704260442841524
12032.0,0.025738524065404476
12036.0,0.040594030204623086
12040.0,0.06075542723270875
12044.0,0.0835080072240024
12048.0,0.12380966043691041
12052.0,0.14026359093905308
12056.0,0.1595996257813602
12060.0,0.1825205200780245
12064.0,0.18366896616142347
12068.0,0.21278884165889506
12072.0,0.24204510771641066
12076.0,0.24989807990567836
12080.0,0.26871969178639793
12084.0,0.266677828850486
12088.0,0.2793716155904358
12092.0,0.3091372501278307
12096.0,0.31063056187385185
12100.0,0.29006376312121157
12104.0,0.29995284096646735
12108.0,0.3051982768094054
12112.0,0.30238277544818143
12116.0,0.31045869024731315
12120.0,0.3032240777091836
12124.0,0.2968497769444392
12128.0,0.28657305820884227
12132.0,0.30535748276890706
12136.0,0.2821475564698003
12140.0,0.25831518632984085
12144.0,0.24395347367947273
12148.0,0.20245787172960997
12152.0,0.19755546609416363
12156.0,0.18580067481111762
12160.0,0.16596308106850585
12164.0,0.1484585676746979
12168.0,0.1255706707418952
12172.0,0.10012514977855001
12176.0,0.06453472979413628
12180.0,0.039700322129270056
12184.0,0.024467883987010986
12188.0,0.0007705166270066333
12192.0,-0.015716469381692473
12196.0,-0.005310099905060872
12200.0,-0.01067141503250786
12204.0,-0.006817793613165567
12208.0,0.003614319108912775
12212.0,-0.015336196899964316
12216.0,0.0026708604053530295
12220.0,-0.0040398667576743204
12224.0,-0.0187539100051023
12228.0,0.010356612281318912
12232.0,-0.023247477439726265
12236.0,-0.01258608231550019
12240.0,-0.0062689042761218455
12244.0,-0.0012950400406932636
12248.0,0.006469642233772292
12252.0,0.01872396626811702
12256.0,-0.0047582984698684265
12260.0,0.002881484355411459
12264.0,0.0019682026676735723
12268.0,-0.0003996922719935193
12272.0,-0.012513370722821295
12276.0,-0.0035478678632281206
12280.0,0.0021435680083134747
12284.0,-0.0033727253039406956
12288.0,0.004208980793453995
12292.0,-0.0050541385114947395
12296.0,0.0020865184906515557
12300.0,-0.005945685152093102
12304.0,-0.008327690560910017
12308.0,-0.0029052281071306886
12312.0,0.0049316907080108425
12316.0,0.007908212267369544
12320.0,-0.012679824129060773
12324.0,-0.004943852369712868
12328.0,-0.009688140007825908
12332.0,-0.011867879192741291
12336.0,-0.0046521298705814096
12340.0,0.0009811877456008587
12344.0,-0.01757656081619818
12348.0,-0.006642107553543511
12352.0,0.004453601128303656
12356.0,-0.006889980347084621
12360.0,-0.00122111825382156
12364.0,-0.0034530127514935632
12368.0,-0.0015056111820016382
12372.0,-0.0010506450905101673
12376.0,0.006377500111195588
12380.0,0.012943484168431421
12384.0,-0.009107374019596324
12388.0,0.005448933068181959
12392.0,0.005681008532441713
12396.0,0.0016471545724724365
12400.0,0.009729161633111785
12404.0,-0.006813743828192647
12408.0,0.0038661177379703815
12412.0,-0.005389405262933024
12416.0,-0.0020682679863144923
12420.0,-0.012204218799103385
12424.0,0.0016995178962558215
12428.0,0.013238399417993417
12432.0,-0.01149976605212483
12436.0,0.002385348479834672
12440.0,0.005287197420759799
12444.0,0.005241967523164747
12448.0,0.0013030325527173805
12452.0,0.017689072393758613
12456.0,0.002114050010280461
12460.0,0.010658757372119826
12464.0,-0.016753244747405832
12468.0,0.00689624209777198
12472.0,0.0070512649446665245
12476.0,-0.0061518950297041065
12480.0,0.01157314177150832
12484.0,0.005707890529057926
12488.0,0.0039708520294806805
12492.0,0.012025740651062529
12496.0,0.0023226683936132197
12500.0,-0.01802217597403861
12504.0,-0.007681762735434012
12508.0,0.008117994081836765
12512.0,0.0015144459350758233
12516.0,-0.01783523742176803
12520.0,0.011014469171517967
12524.0,0.006659303502017279
12528.0,0.02141430218696417
12532.0,0.07324226430720981
12536.0,0.09964381723220309
12540.0,0.1242666299214192
12544.0,0.15808251151986083
12548.0,0.19264395633136935
12552.0,0.22476261674341375
12556.0,0.24349329311494275
12560.0,0.21947843755339616
12564.0,0.2530144338493616
12568.0,0.26028079926590336
12572.0,0.2607592731227655
12576.0,0.2600448427733715
12580.0,0.2565205681139104
12584.0,0.24942661566640434
12588.0,0.22962871803806456
12592.0,0.22140251775386227
12596.0,0.19167386673746906
12600.0,0.19342322118119706
12604.0,0.18142461925953446
12608.0,0.1309975751389272
12612.0,0.08665006733999574
12616.0,0.06621220395298609
12620.0,0.026299913106778348
12624.0,-0.0026815561537197087
12628.0,0.018361215266657738
12632.0,-0.0027357308138550238
12636.0,0.006351855231278493
12640.0,0.0015521718211443918
12644.0,-0.007927512787631399
12648.0,-0.019655568088356532
12652.0,-0.004213506955632512
12656.0,-0.0017544347424408315
12660.0,0.0030750969729784316
12664.0,-0.0001457802686013108
12668.0,-0.05056367706925691
12672.0,-0.08154620971792222
12676.0,-0.1030200503147797
12680.0,-0.1918710403395262
12684.0,-0.0018313901910334684
12688.0,0.10756107627154973
12692.0,0.21519739248257108
12696.0,0.31170014749955877
12700.0,0.4289968292144286
12704.0,0.5308981901028658
12708.0,0.62355619816984
12712.0,0.7603029641334615
12716.0,0.83176141158493
12720.0,0.9505101439657407
12724.0,1.0717606437726923
12728.0,0.9656077656975532
12732.0,0.8292494940868417
12736.0,0.7390489187253451
12740.0,0.6414253917379258
12744.0,0.5309471260392669
12748.0,0.4214976694137978
12752.0,0.32207068311237225
12756.0,0.20707402759044807
12760.0,0.10496723964852865
12764.0,0.006498804679635741
12768.0,-0.0748735870097763
12772.0,-0.0965329834816645
12776.0,-0.17995219217210903
12780.0,-0.2361520407528558
12784.0,-0.32975885788758474
12788.0,-0.2538729666577262
12792.0,-0.18090470074396686
12796.0,-0.11840941276220815
12800.0,-0.06698960098767481
12804.0,-0.04407139500644084
12808.0,-0.04533764555428074
12812.0,-0.04884794599894462
12816.0,-0.033657554998429054
12820.0,-0.03880002133646579
12824.0,-0.025411725255733188
12828.0,-0.041931309839453125
12832.0,-0.05379708550302233
12836.0,-0.045695276092926056
12840.0,-0.03434967296106407
12844.0,-0.041395796909237885
12848.0,-0.026855467871296574
12852.0,-0.02677614993623431
12856.0,-0.024933926615651084
12860.0,-0.013678571376738339
12864.0,-0.020701947311272728
12868.0,-0.0015224544925247815
12872.0,-0.010047639130347199
12876.0,0.005948945490068906
12880.0,0.008572468040430013
12884.0,0.0012213536245259543
12888.0,0.025629534429523516
12892.0,0.033074839001538694
12896.0,0.07303781826621523
12900.0,0.09392914779871657
12904.0,0.12521711177073197
12908.0,0.15746982919602615
12912.0,0.17920216644029965
12916.0,0.17958420229532018
12920.0,0.204425512879489
12924.0,0.22030557683603524
12928.0,0.24485651963403565
12932.0,0.2677548736450677
12936.0,0.2732744392400393
12940.0,0.2923863974598547
12944.0,0.28746210228949765
12948.0,0.30537131215972596
12952.0,0.3011181639476578
12956.0,0.31943583343731924
12960.0,0.3076621418810484
12964.0,0.3164713794235848
12968.0,0.3248809008414775
12972.0,0.3351148982924816
12976.0,0.3060319488738431
12980.0,0.29141012177800246
12984.0,0.2840957333587444
12988.0,0.2978967551102598
12992.0,0.2854145558356625
12996.0,0.27321985307366087
13000.0,0.2553628894371316
13004.0,0.2372996524940782
13008.0,0.21435877853697996
13012.0,0.21130068292940535
13016.0,0.16792163166690055
13020.0,0.16596424012569802
13024.0,0.13864008892020183
13028.0,0.08714974878780349
13032.0,0.06285468273397819
13036.0,0.046720986608061135
13040.0,0.027154230099733497
13044.0,0.015031926744108873
13048.0,0.01310871511669158
13052.0,0.007050103514589576
13056.0,0.0045442726242787305
13060.0,-0.023859218427956883
13064.0,-0.0304754251417775
13068.0,0.004198500611196334
13072.0,-0.0022720154908075847
13076.0,0.007202237545457644
13080.0,0.002610912509057367
13084.0,-0.0011055542464264722
13088.0,-0.0035977375347618122
13092.0,0.008539382246061785
13096.0,0.00667473068297244
13100.0,-0.006898295036249394
13104.0,-0.002986514263956877
13108.0,0.0035501871010809667
13112.0,0.014886113540757596
13116.0,-0.024282358137971537
13120.0,0.002038525685067272
13124.0,0.02508745380335862
13128.0,0.008867961079664942
13132.0,0.013505453192187647
13136.0,-0.006465420997408171
13140.0,0.0034231202163283866
13144.0,0.005762475683855411
13148.0,-0.001050171890733533
13152.0,0.007126483815026044
13156.0,-0.003964501310540003
13160.0,-0.0037947115069856215
13164.0,-0.004098002479920928
13168.0,-0.006249608012513175
13172.0,0.009935086784093175
13176.0,0.01098500977226799
13180.0,0.0005424466244634168
13184.0,-0.009904746726714035
13188.0,-0.01297415437354617
13192.0,-0.0070256510836551956
13196.0,0.019142762732481097
13200.0,-0.000109132830433634
13204.0,0.008922568112349377
13208.0,-0.009909435160403528
13212.0,-0.0008447656500773637
13216.0,-0.0032916500949231376
13220.0,0.01235797189266717
13224.0,-0.004083677205977629
13228.0,-0.014351005405889686
13232.0,0.022379360876132275
13236.0,0.0004102958649769284
13240.0,0.004691314692532989
13244.0,0.004742609759079797
13248.0,0.0159649417601981
13252.0,0.004867493644526646
13256.0,0.008273988572272564
13260.0,0.023676657105860616
13264.0,-0.006203413864048755
13268.0,0.002214641714605311
13272.0,-0.017233378278638103
13276.0,-0.003445622789115181
13280.0,0.008930376964135948
13284.0,-0.012398047433220673
13288.0,-0.017695321720687617
13292.0,0.0045470747447827874
13296.0,0.002689818812718465
13300.0,-0.0034310317822447297
13304.0,-0.00623033316150288
13308.0,5.8628382289752956e-05
13312.0,-0.0017774372030531214
13316.0,0.006525494215321596
13320.0,0.005422446575124754
13324.0,0.013221280844153008
13328.0,-0.011695486508184272
13332.0,-0.000983941870204949
13336.0,0.016074920427354804
13340.0,-0.006415800437646993
13344.0,0.013882088893299609
13348.0,0.0032781479410227015
13352.0,-0.013634287395459226
13356.0,0.014840253891655976
13360.0,0.011590728935338059
13364.0,-0.00596998203135459
13368.0,-0.0006468093365494177
13372.0,0.001689335260997849
13376.0,-0.0074753136248303835
13380.0,-0.008897258663460764
13384.0,0.04773351631617481
13388.0,0.071254879039387
13392.0,0.09124898069754975
13396.0,0.15804230034097289
13400.0,0.15712968283245582
13404.0,0.1839962547717777
13408.0,0.20434590354734003
13412.0,0.23840245996766674
13416.0,0.25714850189559274
13420.0,0.2694542273722776
13424.0,0.2656769022068743
13428.0,0.26497464543085253
13432.0,0.2744166779461774
13436.0,0.26176401994296195
13440.0,0.24996078807791716
13444.0,0.23972210331641663
13448.0,0.21915222240362278
13452.0,0.22057862036114093
13456.0,0.18801706971475082
13460.0,0.1470150532442112
13464.0,0.1367448421260722
13468.0,0.10845167093340669
13472.0,0.05356861533301257
13476.0,0.059600054174917205
13480.0,0.0001979894238268971
13484.0,-0.015040998008593955
13488.0,-0.006434532714396427
13492.0,0.009291635331076848
13496.0,-0.015435640218311604
13500.0,-0.01367552642504781
13504.0,-0.008615987147078823
13508.0,0.013345333017926548
13512.0,-0.009422337713684057
13516.0,0.0007921810024547801
13520.0,-0.0068100101855575815
13524.0,-0.03714836360719027
13528.0,-0.08091362964171914
13532.0,-0.13050322058878672
13536.0,-0.18632522999972492
13540.0,0.00323673130247462
13544.0,0.11127128567527782
13548.0,0.22835449011567038
13552.0,0.328971197210103
13556.0,0.4205849587956632
13560.0,0.5268845842908609
13564.0,0.6538648526065968
13568.0,0.7621575608952689
13572.0,0.8672023214981363
13576.0,0.9797563807624549
13580.0,1.078169835919858
13584.0,0.9663848466278425
13588.0,0.8663335634566719
13592.0,0.7576590185088735
13596.0,0.6374619176500949
13600.0,0.5343628552963968
13604.0,0.42236047252295783
13608.0,0.31680101105411873
13612.0,0.21674925231142872
13616.0,0.09159852231513962
13620.0,-0.01121629446025305
13624.0,-0.0726573849523651
13628.0,-0.12631801356425182
13632.0,-0.19019930907337163
13636.0,-0.2769694276918899
13640.0,-0.32023686326250467
13644.0,-0.2503009036528382
13648.0,-0.21250543775474717
13652.0,-0.13757808318145892
13656.0,-0.06207373237007449
13660.0,-0.057188378995889015
13664.0,-0.05446511398884047
13668.0,-0.05043072453562169
13672.0,-0.05693240983690701
13676.0,-0.049929192029203304
13680.0,-0.06184643300511833
13684.0,-0.0344748551146526
13688.0,-0.022433042548792703
13692.0,-0.05400159866779199
13696.0,-0.03231911072700049
13700.0,-0.019521809080487024
13704.0,-0.02019724648780133
13708.0,-0.015748892897029052
13712.0,-0.025326399655046405
13716.0,-0.016240124545827326
13720.0,-0.017406375185628056
13724.0,-0.026637691132263053
13728.0,-0.0062654841744366665
13732.0,-0.017753447023081844
13736.0,-0.0074270609708705065
13740.0,0.015403679009238778
13744.0,0.024157977794874767
13748.0,0.06104688091615968
13752.0,0.08938043280420144
13756.0,0.09547243436479545
13760.0,0.11413967698031516
13764.0,0.15903142624842315
13768.0,0.18273087008254774
13772.0,0.2026609917825824
13776.0,0.19730431769546672
13780.0,0.23945566788515787
13784.0,0.2321481226346847
13788.0,0.2766303386142952
13792.0,0.28021686292173775
13796.0,0.29237562473273737
13800.0,0.2850902632602927
13804.0,0.30447135189055063
13808.0,0.3011987949299732
13812.0,0.32059671542147633
13816.0,0.2943775753703842
13820.0,0.3231629433000029
13824.0,0.29374756490051956
13828.0,0.30183122385409833
13832.0,0.31440723243615387
13836.0,0.3147188416959032
13840.0,0.2747860664675607
13844.0,0.284519537453337
13848.0,0.2582268121475617
13852.0,0.26542789428217795
13856.0,0.23335745917494521
13860.0,0.20785622488064787
13864.0,0.19242137351539057
13868.0,0.18177155292150954
13872.0,0.16169658677531434
13876.0,0.13791270866490166
13880.0,0.11921927199231848
13884.0,0.09620961818456958
13888.0,0.08342996512055008
13892.0,0.044438153221049846
13896.0,0.03599705555855563
13900.0,-0.008921822694040057
13904.0,0.006933714499435358
13908.0,-0.005313739846305852
13912.0,0.0023436177669072396
13916.0,-0.008809266347643488
13920.0,0.007799971666336887
13924.0,0.006286330364806835
13928.0,0.00525022829535332
13932.0,-0.013425714394017267
13936.0,0.010164476461665404
13940.0,-0.00466526785054204
13944.0,0.010730432611411909
13948.0,-0.006502270172711256
13952.0,0.0004656397279997575
13956.0,-0.01739195854981654
13960.0,0.001274778535042118
13964.0,0.012752805694766885
13968.0,0.007605231662960475
13972.0,-0.0011687184150442483
13976.0,0.01793782022363614
13980.0,-0.02576648348456563
13984.0,-0.013342502411663114
13988.0,0.024505612656788252
13992.0,0.012567576624811144
13996.0,-0.011939413654562936
14000.0,0.002602029611276763
14004.0,-0.008914674945659926
14008.0,0.003393329129858823
14012.0,0.012991112883069596
14016.0,-0.008896680194325282
14020.0,0.003813500126080627
14024.0,0.003938373182966316
14028.0,0.008922779165213928
14032.0,0.00602004002873283
14036.0,-0.006749201743746713
14040.0,-0.009888177416080583
14044.0,-0.0094556299273127
14048.0,0.008233944187068003
14052.0,-0.004120982614397543
14056.0,-0.0010917695795923791
14060.0,0.003331485880314241
14064.0,0.013989631127623242
14068.0,-0.005968807852015731
14072.0,-0.0017019662112517703
14076.0,-0.01954842553479783
14080.0,-0.017546403731905504
14084.0,0.009998524593913996
14088.0,0.006612314560323613
14092.0,0.018259532825199175
14096.0,0.009419110372085818
14100.0,0.015095354631568204
14104.0,0.00822852747743391
14108.0,0.0014893816073772376
14112.0,0.009058412122066315
14116.0,0.01676543350473252
14120.0,-0.00645960806127788
14124.0,0.003631309665108902
14128.0,0.0112225228749099
14132.0,-0.0014579416061290794
14136.0,-0.006180426662442341
14140.0,0.003611103869606286
14144.0,0.0008683927814534762
14148.0,0.011309711850049496
14152.0,0.013611438401945328
14156.0,-0.012641985975512724
14160.0,0.010773184390824793
14164.0,0.006106073656765627
14168.0,-0.0008945967574531515
14172.0,-0.013737701995636531
14176.0,-0.0018495025719481306
14180.0,0.005807318000475362
14184.0,-0.0003445841070414738
14188.0,0.012476662076541162
14192.0,-0.0016958563468589926
14196.0,-0.009268147648560102
14200.0,0.00013494727676830327
14204.0,-0.007542145675314065
14208.0,-0.013473606117508585
14212.0,0.002218269388603699
14216.0,0.003478022255501643
14220.0,0.009813071323268802
14224.0,0.005536168764737575
14228.0,0.012694863790869166
14232.0,-0.003081449500309039
14236.0,0.008267035930295374
14240.0,0.024708504148592873
14244.0,0.08000250940565083
14248.0,0.08275397817717325
14252.0,0.12678189438889823
14256.0,0.1373583387205449
14260.0,0.15632109781144174
14264.0,0.18537467872135027
14268.0,0.21299310256957432
14272.0,0.2212641240260208
14276.0,0.22382873464726366
14280.0,0.25700584903903795
14284.0,0.23435952660821516
14288.0,0.24722318183455427
14292.0,0.24568226815909178
14296.0,0.2385647976254814
14300.0,0.21069554458015885
14304.0,0.18844663501508177
14308.0,0.18647573953472585
14312.0,0.17319610873845007
14316.0,0.15438790944485323
14320.0,0.10126010053611863
14324.0,0.08049702836000057
14328.0,0.053219626905047335
14332.0,0.03077621095174942
14336.0,0.02065186011700312
14340.0,-0.002273389067880854
14344.0,0.003393363034815448
14348.0,0.014630134763243416
14352.0,0.0007515964505121389
14356.0,0.012315557803807093
14360.0,-0.008955308025847934
14364.0,-0.010167933594442034
14368.0,0.008666713005472644
14372.0,-0.0046501583250454556
14376.0,-0.006526096825475235
14380.0,-0.031802226724202874
14384.0,-0.08165165316810014
14388.0,-0.11153970842248445
14392.0,-0.13468476825401265
14396.0,-0.0005040857424725898
14400.0,0.10126130629672363
14404.0,0.1923464337905849
14408.0,0.2800686963718481
14412.0,0.37348832145219024
14416.0,0.47060839966635704
14420.0,0.5835040720333393
14424.0,0.6695285041669483
14428.0,0.7586087644654768
14432.0,0.8663056749883022
14436.0,0.947961716798478
14440.0,0.8626767277563778
14444.0,0.7465909013013257
14448.0,0.6805816768894923
14452.0,0.5733882094653014
14456.0,0.4659724651737804
14460.0,0.37953896724723324
14464.0,0.274732980802122
14468.0,0.18401465800260153
14472.0,0.0794090811595137
14476.0,0.013051588729355334
14480.0,-0.0617930154277834
14484.0,-0.1267473113450514
14488.0,-0.1681479580626748
14492.0,-0.2367791547323459
14496.0,-0.28302088895917504
14500.0,-0.22785529252788142
14504.0,-0.17463693258413385
14508.0,-0.0950633571036613
14512.0,-0.051254629048328476
14516.0,-0.04901411176583688
14520.0,-0.050716588386767354
14524.0,-0.03969831290487231
14528.0,-0.03742264130009659
14532.0,-0.03956933947372822
14536.0,-0.05392117059554119
14540.0,-0.006569911888037764
14544.0,-0.044513466323394084
14548.0,-0.021220005590904808
14552.0,-0.006047735088462652
14556.0,-0.026325873292976382
14560.0,-0.02067896574209338
14564.0,-0.0019314342191628165
14568.0,-0.018850120343249323
14572.0,-0.000571700086989106
14576.0,-0.02535136376217475
14580.0,-0.006380347138112289
14584.0,-0.004784866929066182
14588.0,-0.006303905864140672
14592.0,0.007580683758192581
14596.0,0.009708794087621245
14600.0,0.02165363903800509
14604.0,0.05359739561801222
14608.0,0.08145460042390211
14612.0,0.09186930219084774
14616.0,0.10056026992454367
14620.0,0.1312477195259047
14624.0,0.14841922577015923
14628.0,0.1743962834568571
14632.0,0.18379089591440936
14636.0,0.2033212037309607
14640.0,0.20060176380638264
14644.0,0.2093557929942056
14648.0,0.24226672795459722
14652.0,0.23994816270092575
14656.0,0.25637765985940664
14660.0,0.27918033169239154
14664.0,0.2682948466830305
14668.0,0.26989473978737416
14672.0,0.27862182080178705
14676.0,0.276481079743914
14680.0,0.27310763485997264
14684.0,0.2740137195529642
14688.0,0.27706832427286326
14692.0,0.2536440790774061
14696.0,0.25400666276614275
14700.0,0.2539405541527401
14704.0,0.233463207452997
14708.0,0.2210917340626935
14712.0,0.2113722944552038
14716.0,0.19630276455280835
14720.0,0.17898055497722418
14724.0,0.17057786675322736
14728.0,0.1238942543507554
14732.0,0.13759564003514427
14736.0,0.11154709253099614
14740.0,0.08368926200049516
14744.0,0.06384988369495355
14748.0,0.05592069306994713
14752.0,0.012637772751519435
14756.0,-0.007787697015332165
14760.0,0.01214465971527525
14764.0,0.005385473054168089
14768.0,0.006122221028845022
14772.0,0.011564780712997208
14776.0,0.007661794522978533
14780.0,-0.012138065355969061
14784.0,-0.009714617350676186
14788.0,-0.0053350938965230285
14792.0,0.0011846056720283382
14796.0,-0.0016210506822479447
14800.0,-0.013317514760680105
14804.0,0.004092744623318121
14808.0,0.006055510381797311
14812.0,0.006323670200169418
14816.0,0.003687012000182788
14820.0,0.01233047780111658
14824.0,0.013399463051323933
14828.0,0.017783554060182116
14832.0,-0.001863570159653037
14836.0,0.010415737517689769
14840.0,0.007471617762649005
14844.0,0.002461515622514732
14848.0,0.018106013094417433
14852.0,0.0018027580455980204
14856.0,-0.012981684976063633
14860.0,0.003754808595965944
14864.0,-0.003715376864963302
14868.0,0.0006997829457648673
14872.0,0.009594049859443746
14876.0,-0.0003308633925323371
14880.0,0.01458829176693523
14884.0,-0.011928774682886494
14888.0,0.009229951544964263
14892.0,-0.032386144793161264
14896.0,0.003978001497844116
14900.0,-0.0017490272539036039
14904.0,-0.0009937076611474588
14908.0,-0.0016249857067794403
14912.0,-0.003431595505065961
14916.0,-0.010512685047287947
14920.0,-0.006312435485043973
14924.0,0.013142674745195128
14928.0,-0.009354607844297855
14932.0,-0.00634044921496487
14936.0,-0.0035518623814326956
14940.0,0.006544775591502215
14944.0,-0.01036547417004619
14948.0,0.000626571154544491
14952.0,-0.0018357100792025295
14956.0,0.007479582930951746
14960.0,-0.012845907013012652
14964.0,-0.0027260269054378916
14968.0,0.013648833335321249
14972.0,-0.005139594883285103
14976.0,0.008585566358398095
14980.0,0.002093127986182237
14984.0,0.001743875751983857
14988.0,-0.006926289790580135
14992.0,-0.0031534419030133654
14996.0,-0.004293505729040782
15000.0,-0.012673200121590322
15004.0,0.010337580294860068
15008.0,-0.0029038039544481784
15012.0,-0.00861491567990678
15016.0,0.003983528990075635
15020.0,0.0013931866073765733
15024.0,0.0064281713567610034
15028.0,-0.005350496015635358
15032.0,-0.00655724777894393
15036.0,0.0052755438437221015
15040.0,0.013178843190574663
15044.0,0.014926281356638933
15048.0,-0.012346999331106508
15052.0,0.0013338332965500475
15056.0,-0.0011128744629385011
15060.0,0.005343750097491151
15064.0,-0.0011703806203856588
15068.0,-0.012399741045551551
15072.0,0.006621453529588936
15076.0,-0.00745682946509328
15080.0,0.005971907901668907
15084.0,0.010925585078674539
15088.0,-0.011502075030076718
15092.0,-0.007799939155926692
15096.0,0.028031875723258725
15100.0,0.03745959339737873
15104.0,0.0857219996120879
15108.0,0.09877406509536499
15112.0,0.11518894728203674
15116.0,0.1579148234978168
15120.0,0.18535782809659915
15124.0,0.18920019151987758
15128.0,0.19940093443313076
15132.0,0.21995861253021695
15136.0,0.23369540672851988
15140.0,0.22979085454824721
15144.0,0.23262855609344493
15148.0,0.22672553017428834
15152.0,0.2140843607034487
15156.0,0.21081298635371615
15160.0,0.19301412103470725
15164.0,0.18609813611245538
15168.0,0.1626401840909938
15172.0,0.14324537461894984
15176.0,0.12404903075717126
15180.0,0.08554602063006918
15184.0,0.050354835155196856
15188.0,0.029005809131326887
15192.0,-0.013786812921247593
15196.0,-0.00677820500541598
15200.0,0.0010137624077506092
15204.0,-0.0005306874485461856
15208.0,0.009231800668064814
15212.0,0.0008332211404639942
15216.0,-0.00020856026926966055
15220.0,0.00700311874924352
15224.0,0.0026990140513813285
15228.0,-0.01588345712689594
15232.0,0.003780313345800461
15236.0,-0.03584816845822788
15240.0,-0.07062701898670774
15244.0,-0.10833895644770207
15248.0,-0.14923103314610536
15252.0,0.025076159504819534
15256.0,0.0774194120902966
15260.0,0.1900448988883948
15264.0,0.27237471817916664
15268.0,0.3734361776661835
15272.0,0.47118339882728894
15276.0,0.5561601904457345
15280.0,0.6593689900248089
15284.0,0.7540339293240943
15288.0,0.8431719482460618
15292.0,0.9226328924650588
15296.0,0.8205605944342618
15300.0,0.7500588003413532
15304.0,0.658898039521013
15308.0,0.562436370906535
15312.0,0.46064873526255806
15316.0,0.3709657244171418
15320.0,0.2755696168749997
15324.0,0.19358624985432582
15328.0,0.08638597459036906
15332.0,-0.012073911590974432
15336.0,-0.052271867187186696
15340.0,-0.09932532204371262
15344.0,-0.1649794369370657
15348.0,-0.21571196702283238
15352.0,-0.29390033654041314
15356.0,-0.2291158059981264
15360.0,-0.18360173026206336
15364.0,-0.12259594502008778
15368.0,-0.0604448158190823
15372.0,-0.06254024175637045
15376.0,-0.02101407296555874
15380.0,-0.036196028814790004
15384.0,-0.04625390889716861
15388.0,-0.025432279945564025
15392.0,-0.030143127340204075
15396.0,-0.022257517888339608
15400.0,-0.03174195470396968
15404.0,-0.03734447827684209
15408.0,-0.02545750251110867
15412.0,-0.023153647679471416
15416.0,-0.02674486583935765
15420.0,-0.013243927978871218
15424.0,-0.02150697179757752
15428.0,-0.016266184115161734
15432.0,-0.018043570875962273
15436.0,-0.017417838417154514
15440.0,-0.00016891495167961813
15444.0,-0.002913258137020692
15448.0,-0.00013578173640193492
15452.0,0.006611206653561905
15456.0,0.02506263314409184
15460.0,0.05058544982001728
15464.0,0.06864859074079627
15468.0,0.09254766289366187
15472.0,0.10763369308348392
15476.0,0.12582912789971176
15480.0,0.14828532400408206
15484.0,0.15947928786311638
15488.0,0.18447657313298557
15492.0,0.20180300754545055
15496.0,0.22194773314729693
15500.0,0.23113257602588036
15504.0,0.23345089842702263
15508.0,0.25670636766374405
15512.0,0.25494604621276873
15516.0,0.26920817330900354
15520.0,0.2912024351540983
15524.0,0.2899758217557005
15528.0,0.28141982219647194
15532.0,0.27369181705208273
15536.0,0.28396145982872895
15540.0,0.2787207194810683
15544.0,0.27405518549350316
15548.0,0.2807559371445638
15552.0,0.26290141580098014
15556.0,0.271323461441027
15560.0,0.24457160701133676
15564.0,0.21608879363153902
15568.0,0.21042228904458588
15572.0,0.21387327390014074
15576.0,0.19251512703313817
15580.0,0.1704467737701722
15584.0,0.16818230215550858
15588.0,0.12990538595222859
15592.0,0.10863415589803616
15596.0,0.07383178401515893
15600.0,0.07742050532215955
15604.0,0.034205892116316965
15608.0,0.00927919122770163
15612.0,-0.009641358638051429
15616.0,-0.007219304657969557
15620.0,-0.0009996758930083433
15624.0,-0.0024115120133855633
15628.0,0.001015507875109385
15632.0,-0.007153111498219447
15636.0,0.01601559292543777
15640.0,-0.0016974829957112519
15644.0,-0.013575144350554484
15648.0,0.012631544057790507
15652.0,0.0030791702823651525
15656.0,-0.0012080712647679693
15660.0,0.00943967082804557
15664.0,-0.016718144993619264
15668.0,0.016169180392482902
15672.0,-0.007640731100331513
15676.0,0.00238156352743513
15680.0,0.01738624312660447
15684.0,-0.007566245339233455
15688.0,-0.00476599107411607
15692.0,0.005579738115447586
15696.0,0.005838149129016603
15700.0,0.005519456876649316
15704.0,-0.015391519951324435
15708.0,0.016496479001236235
15712.0,0.005622671851509461
15716.0,-0.021841746859483348
15720.0,-0.016525659756971744
15724.0,-0.000964880261037896
15728.0,0.006165501635053069
15732.0,-0.006585187611451143
15736.0,-0.011908054940009986
15740.0,-0.007625734564554701
15744.0,0.0050694604372242815
15748.0,-0.008013810546771692
15752.0,-0.010697125356876946
15756.0,-0.006269456765364189
15760.0,0.000611833383864085
15764.0,0.003207031756708648
15768.0,0.0024129159575035602
15772.0,-0.015739762176978932
15776.0,-0.008711829794077922
15780.0,-0.007456759056792032
15784.0,-0.024563334277054562
15788.0,-0.008236465371883554
15792.0,0.005367920900274761
15796.0,-0.016066256665154446
15800.0,0.0037198537169084497
15804.0,0.01624963773123177
15808.0,0.006506197348230111
15812.0,0.007698878852523226
15816.0,-0.002368085061553451
15820.0,0.0009372592155691621
15824.0,-0.006632962232658117
15828.0,-0.008942146422780387
15832.0,-0.005843593121350586
15836.0,0.014519954551421256
15840.0,-0.007748998855374721
15844.0,-0.0033758824185302944
15848.0,0.007479664937344161
15852.0,0.0016065235669225357
15856.0,-0.008087815687932263
15860.0,-0.008145282978571096
15864.0,-0.008814199560037296
15868.0,-0.003936195782272344
15872.0,-0.012131147577462751
15876.0,0.007245690108997944
15880.0,-0.009887674586814669
15884.0,0.020925857794505117
15888.0,-0.010877429031712026
15892.0,-0.003455058623097588
15896.0,-0.015013602185103114
15900.0,0.004443464075203004
15904.0,-0.0031783437628586184
15908.0,0.00287410955736066
15912.0,0.006674032822292267
15916.0,0.010119022698358968
15920.0,-0.010145533387498165
15924.0,0.00010311233591686028
15928.0,-0.00484811860880689
15932.0,0.022454977091683984
15936.0,0.001288000813558507
15940.0,0.012546833679340622
15944.0,-0.011441077208934882
15948.0,0.0021001410240798885
15952.0,0.009362456295045552
15956.0,0.0741308098459702
15960.0,0.08959003645466006
15964.0,0.11081252224758661
15968.0,0.1595004945276066
15972.0,0.15358357168164566
15976.0,0.18557627224286335
15980.0,0.20445846636283682
15984.0,0.21347782377496738
15988.0,0.24067695071882558
15992.0,0.23555810255671902
15996.0,0.2397794212328104
16000.0,0.24604567051428727
16004.0,0.22996536077154217
16008.0,0.23816734611136917
16012.0,0.23910737417300157
16016.0,0.22259770279645222
16020.0,0.19996822089357
16024.0,0.1827959864788799
16028.0,0.1394730233081075
16032.0,0.11946163965212256
16036.0,0.09785693583012184
16040.0,0.047263248834741534
16044.0,0.039929717666133534
16048.0,-0.010040146101836869
16052.0,-0.00747808364360883
16056.0,0.004781835171151911
16060.0,-0.001057693647667948
16064.0,0.006322703475311155
16068.0,0.008972481046014006
16072.0,-0.0059185851187722825
16076.0,0.008280245348110898
16080.0,0.009807051393454058
16084.0,-0.011719070149665988
16088.0,-0.009563612691251805
16092.0,-0.036562035415363646
16096.0,-0.07839151862289216
16100.0,-0.10659260246925527
16104.0,-0.1601769102508036
16108.0,-0.0023079776773406637
16112.0,0.09338090874790464
16116.0,0.20112527722531146
16120.0,0.31029848587674486
16124.0,0.38454154449588207
16128.0,0.500521336236833
16132.0,0.5893204503378403
16136.0,0.6951441521527488
16140.0,0.8076910216271743
16144.0,0.902318537919486
16148.0,1.0137501278616428
16152.0,0.8864107404352811
16156.0,0.7975193942651346
16160.0,0.6889712272854257
16164.0,0.628984539292411
16168.0,0.5118796349476781
16172.0,0.40193204359924417
16176.0,0.29212230184975796
16180.0,0.19633529125997928
16184.0,0.09460203565879304
16188.0,0.0230411384820965
16192.0,-0.05289911289579838
16196.0,-0.11585370590565783
16200.0,-0.1741701729237868
16204.0,-0.24554398570634378
16208.0,-0.3143789518381149
16212.0,-0.22923564814152717
16216.0,-0.19925979754809028
16220.0,-0.12160385350720053
16224.0,-0.06492739596113874
16228.0,-0.04091525910626195
16232.0,-0.04076183759090494
16236.0,-0.05242212743981478
16240.0,-0.03940418297808932
16244.0,-0.039902390448216446
16248.0,-0.025849604879857564
16252.0,-0.015268792961957137
16256.0,-0.03529473111566093
16260.0,-0.023814288180181182
16264.0,-0.033060964348535504
16268.0,-0.025539662069307387
16272.0,-0.01513180280007422
16276.0,-0.02037520693878525
16280.0,6.660698046429652e-05
16284.0,-0.023341953765899728
16288.0,-0.022342636735311748
16292.0,0.017960802978263253
16296.0,0.00415406123912533
16300.0,0.016035645143317834
16304.0,0.001066029307430401
16308.0,-0.01670364621790345
16312.0,0.018922123238955223
16316.0,0.04927793655952911
16320.0,0.07558350132535074
16324.0,0.08678298400815024
16328.0,0.12698897871047954
16332.0,0.1275924121171247
16336.0,0.1644618798489358
16340.0,0.16980289393637973
16344.0,0.17902804099341502
16348.0,0.20563521349912872
16352.0,0.24688419793811553
16356.0,0.25182748820324746
16360.0,0.23708491314516486
16364.0,0.27268206015095875
16368.0,0.2852711050481214
16372.0,0.30661249594657436
16376.0,0.28946817924514723
16380.0,0.29416783221893295
16384.0,0.32185601272160624
16388.0,0.30641509330795713
16392.0,0.297846892097323
16396.0,0.2941308012746079
16400.0,0.27755906312237993
16404.0,0.2992582047307118
16408.0,0.29835532336206705
16412.0,0.28364664583547305
16416.0,0.25228543195172354
16420.0,0.24588296154896422
16424.0,0.2394399686565216
16428.0,0.22759859198578378
16432.0,0.20517748339014902
16436.0,0.18555494468981903
16440.0,0.18073235287748352
16444.0,0.1555462409965871
16448.0,0.103847592758323
16452.0,0.10271893201598495
16456.0,0.0792455276203475
16460.0,0.06775540774481717
16464.0,0.012190722047739811
16468.0,0.014122345665178155
16472.0,-0.006741867145110628
16476.0,0.015621088915456017
16480.0,-0.016961635109058536
16484.0,-0.0031475845480869727
16488.0,-0.00521454311686956
16492.0,-0.013912538041108024
16496.0,-0.011050239681632684
16500.0,0.00022105764674512044
16504.0,0.02091718546077167
16508.0,0.01594610369121368
16512.0,-0.0037933147052765974
16516.0,-0.00198800559710508
16520.0,0.0171587893800448
16524.0,0.002109144131414931
16528.0,0.00583342840671611
16532.0,-0.0010338320618984845
16536.0,0.0055910100513679156
16540.0,-0.005314328198123943
16544.0,-0.02154317145594689
16548.0,-0.006122860301933865
16552.0,-0.00043022210701097464
16556.0,0.0027344693925616006
16560.0,0.01107788174281533
16564.0,0.019400943256019754
16568.0,0.0136010168108516
16572.0,0.00308589826872012
16576.0,-0.027908082913461595
16580.0,-0.0014142307540349114
16584.0,0.002917290102768372
16588.0,0.0140040497109888
16592.0,-0.00013606729671421447
16596.0,-0.006303837602333604
16600.0,0.008733850967487074
16604.0,-0.006930471744959079
16608.0,-0.008132159216115759
16612.0,0.008531822270331087
16616.0,0.023239936722970384
16620.0,-0.0028418722834648836
16624.0,0.0014824309763097482
16628.0,-0.000632234248891791
16632.0,0.004946336327269915
16636.0,-0.009356121184634046
16640.0,-0.008683350698361472
16644.0,0.00405521920837164
16648.0,8.412345225992814e-06
16652.0,-0.0008213646385051634
16656.0,-0.01652219309415608
16660.0,0.007191849991164944
16664.0,-0.011666129864241653
16668.0,0.010708391684144034
16672.0,-0.012209315011658065
16676.0,-0.006313805326579964
16680.0,0.013628318116790631
16684.0,-0.012969251546895886
16688.0,-0.010276571315219899
16692.0,0.023565050416575764
16696.0,0.01239729581309432
16700.0,0.015447372231839116
16704.0,-0.003676886765929588
16708.0,0.0009057989313723539
16712.0,0.008513183265251554
16716.0,-0.013494413498116227
16720.0,-0.014254932333911001
16724.0,0.015262133480839532
16728.0,0.010556148473415985
16732.0,-0.0053329059339598675
16736.0,0.010453217326745071
16740.0,-0.008482183024111457
16744.0,0.005152877793819087
16748.0,0.017981600859092874
16752.0,-0.000571225737607453
16756.0,0.0053768569403506725
16760.0,-0.0013669500950570749
16764.0,-0.0018102011089122976
16768.0,-0.009915928668108538
16772.0,0.010291193531055374
16776.0,0.01083609604635199
16780.0,0.00698023396355424
16784.0,0.0043838052031377585
16788.0,-0.00041392232992637593
16792.0,-0.01185433475050042
16796.0,0.01397180616541545
16800.0,0.005281042727099916
16804.0,0.014033132565381705
16808.0,0.04041360477972965
16812.0,0.07140311638443186
16816.0,0.08400365485614048
16820.0,0.13857039903953428
16824.0,0.1434997646018655
16828.0,0.20629211177130352
16832.0,0.22869966413881399
16836.0,0.22116652703817583
16840.0,0.24146812859000863
16844.0,0.26529652097716505
16848.0,0.27061516601529323
16852.0,0.2899347408198519
16856.0,0.2757079082740642
16860.0,0.27378174541976813
16864.0,0.2561958852976237
16868.0,0.21867589619519318
16872.0,0.23323099918212084
16876.0,0.21837964028506224
16880.0,0.19814918866310022
16884.0,0.14464899212074622
16888.0,0.13892552596218946
16892.0,0.12473956361519135
16896.0,0.06888741061633402
16900.0,0.016611803329782755
16904.0,-0.02352278661012874
16908.0,-0.013645291305671058
16912.0,-0.019184050938732825
16916.0,-0.024334360863237786
16920.0,0.006151207384337192
16924.0,0.0015131359447085448
16928.0,0.013031285144512104
16932.0,-0.010916772180434367
16936.0,-0.0060436482940103
16940.0,0.0013436689889691545
16944.0,-0.00619070626625269
16948.0,-0.057128518226604946
16952.0,-0.0850538629104703
16956.0,-0.13052588692353234
16960.0,-0.16307915924792077
16964.0,-0.027676348016933784
16968.0,0.10541926236421897
16972.0,0.20746284572262144
16976.0,0.30978802044007225
16980.0,0.43684082658916223
16984.0,0.5477989720869436
16988.0,0.6418379291180525
16992.0,0.7406055441363943
16996.0,0.8904439046750536
17000.0,0.9725566631282205
17004.0,1.0942208602095496
17008.0,0.9775701698600799
17012.0,0.8770103812697373
17016.0,0.7650211187759739
17020.0,0.6290397506260864
17024.0,0.5479208129291779
17028.0,0.4309022298732354
17032.0,0.3179280616197368
17036.0,0.23586228081196423
17040.0,0.09279768595396364
17044.0,0.014186693774365686
17048.0,-0.055726812513546706
17052.0,-0.13408573800153667
