time,value
0.0,0.01668973926123048
4.0,0.0026365036358157296
8.0,-0.003095386129460454
12.0,0.020934039126674627
16.0,-0.00547574210900098
20.0,0.004496961185195353
24.0,-0.007739783121150336
28.0,-0.007348202108924182
32.0,0.013754200459309909
36.0,0.01886171903145494
40.0,0.015450986593694933
44.0,-0.0040101722815662965
48.0,-0.002681068605514114
52.0,-0.008292782804988014
56.0,-0.00355626631361194
60.0,0.003155285723329292
64.0,0.012187719500704783
68.0,0.005193660320750442
72.0,-0.02952083757648687
76.0,-0.01699146992758537
80.0,0.008036938765077127
84.0,0.00287879926520615
88.0,0.004492240189640023
92.0,-0.02378585757452675
96.0,0.0028657049638114614
100.0,-0.01602019249579956
104.0,-0.00585622113698255
108.0,-0.000704015951855085
112.0,-0.0017841796351854438
116.0,0.021100564831965953
120.0,-0.008545821985011111
124.0,0.001988320449069406
128.0,0.00409794436385091
132.0,0.018460581025063986
136.0,0.0032495043953583882
140.0,-0.029158510677131898
144.0,-0.008876277277687607
148.0,-0.003224194507203927
152.0,-0.0014730098421708068
156.0,2.153354160326089e-05
160.0,-0.010942364314458216
164.0,0.012810401511356366
168.0,-0.007323802175905493
172.0,-0.004060331810298683
176.0,0.01389619496239097
180.0,-0.001618978663269481
184.0,0.008470242622134713
188.0,-0.006015783477038902
192.0,0.010058475653632312
196.0,-0.011242194231457388
200.0,0.015552940923294952
204.0,-0.0077079101413828266
208.0,0.017927744542680132
212.0,0.014654671162876198
216.0,-0.004261643390954511
220.0,0.015248884216659866
224.0,-0.008131958208837739
228.0,-0.007837305965658268
232.0,-0.007613555097507912
236.0,0.002934300044056131
240.0,0.004938402303049226
244.0,0.001028472246510346
248.0,-0.005741221678480278
252.0,-0.0011217343120386765
256.0,-0.011508507439915756
260.0,-0.0120610637003722
264.0,0.005123911200531191
268.0,0.00038744299661374514
272.0,-0.01017977341175126
276.0,-0.009130319411144876
280.0,-0.004961871709871401
284.0,0.011169199528733362
288.0,-0.010917876851541908
292.0,0.0026422011758189044
296.0,-0.0028296575425315667
300.0,-0.001527865749826701
304.0,0.0016789619873928117
308.0,-0.0016574443972348933
312.0,0.0017533783145414043
316.0,-0.006197734545496142
320.0,0.0002867004351575036
324.0,0.014912792795375473
328.0,-0.003955228615517006
332.0,-0.0011088028097274386
336.0,-0.013531585588958474
340.0,-0.00012125718494166856
344.0,-0.016597209927732653
348.0,0.011061678981372383
352.0,-0.00890236498554402
356.0,0.0002593777051717766
360.0,0.00401158151475905
364.0,0.014014244708101371
368.0,0.0001091885531739444
372.0,0.012987058081241083
376.0,0.005480508193039419
380.0,0.003455173259226897
384.0,-0.008544296656056952
388.0,0.0017941754311962769
392.0,0.00573705552267686
396.0,-0.0021118221583387433
400.0,-0.0009891643433472062
404.0,-0.007969358335895823
408.0,0.002252552604719163
412.0,0.008966077882523965
416.0,0.012942258048753397
420.0,-0.0007990069484612347
424.0,0.01910744101138467
428.0,0.0061152563964715625
432.0,0.013582550632185206
436.0,-0.002893511880176988
440.0,-0.005939876618692337
444.0,0.0021262453954909648
448.0,0.004666354826070456
452.0,-0.00649670991144522
456.0,-0.018850479742040665
460.0,-0.0032437896193617173
464.0,-0.0005384859460064013
468.0,-0.0059202742861157375
472.0,-0.007591500789300353
476.0,-0.007174144054276081
480.0,0.002904551708296509
484.0,0.002363792384216731
488.0,-0.012491923468055917
492.0,0.010535077104494557
496.0,-0.0020054529814650286
500.0,0.0039935058419403886
504.0,-0.01483243917749321
508.0,-0.006528651597252845
512.0,0.0072059369790423294
516.0,-0.0025225737177861514
520.0,0.006199717052580091
524.0,-0.01687654799624959
528.0,-0.010377434802119808
532.0,0.004138030854901256
536.0,-0.007144058961045993
540.0,0.00119596095152864
544.0,0.021090911057095096
548.0,0.06534693573189294
552.0,0.07331251439018999
556.0,0.13173598336747322
560.0,0.1513394903632534
564.0,0.17596055273424394
568.0,0.19310152831292027
572.0,0.1949169718601023
576.0,0.21625584234177114
580.0,0.2172591773881728
584.0,0.25088854216000905
588.0,0.24745759102700093
592.0,0.24475726137160395
596.0,0.2537272631958842
600.0,0.22936748075302138
604.0,0.22490060168993903
608.0,0.19224540087673242
612.0,0.18306988479216627
616.0,0.17073237320544032
620.0,0.14813908670681714
624.0,0.10690878815987642
628.0,0.08459529199859414
632.0,0.06024249935504143
636.0,0.027898008544057155
640.0,-0.0022278399416022217
644.0,0.01248463790075736
648.0,-0.008779130713175173
652.0,0.0025278509813796714
656.0,0.0033514708591578634
660.0,0.007000113369476402
664.0,0.003121915015339215
668.0,-0.0037907782683645848
672.0,0.0089042668380935
676.0,0.016141464971538597
680.0,-0.006598245527545122
684.0,-0.03279815576619207
688.0,-0.08862624040760463
692.0,-0.13759241036550635
696.0,-0.1624869327586077
700.0,0.0029947497913116205
704.0,0.0981119874337719
708.0,0.1957493740504158
712.0,0.2967006031256195
716.0,0.39147836326494384
720.0,0.4945545372969941
724.0,0.5827059309496627
728.0,0.6595362816660172
732.0,0.779592791315466
736.0,0.8633449209303553
740.0,0.9727148974912226
744.0,0.8767335083473505
748.0,0.7900889472736143
752.0,0.697883301292629
756.0,0.5810905812827389
760.0,0.48656808881105723
764.0,0.37457060647231405
768.0,0.2996198984825595
772.0,0.20240833020150661
776.0,0.08632607353268915
780.0,0.006530411719145309
784.0,-0.05506066122121662
788.0,-0.1251384582413892
792.0,-0.16717679538314842
796.0,-0.23924137870161855
800.0,-0.2798807077370556
804.0,-0.24172340141057688
808.0,-0.1833133699520772
812.0,-0.11569827232388585
816.0,-0.06263348381289893
820.0,-0.0454334327696963
824.0,-0.03703045926442013
828.0,-0.038892874175195075
832.0,-0.04505874051063671
836.0,-0.04085400071316786
840.0,-0.041847484665017615
844.0,-0.031073474164974964
848.0,-0.03548044176039895
852.0,-0.025580801969095783
856.0,-0.011110767352434464
860.0,-0.022815807613359725
864.0,-0.02458951936156768
868.0,-0.036621534504225325
872.0,-0.013084333208196202
876.0,-0.02848161885702529
880.0,-0.011360891568687321
884.0,-0.017919907640686805
888.0,-0.009461581979514683
892.0,-0.00479173372212861
896.0,0.0024618508562046105
900.0,-0.012261316058586056
904.0,0.027080468165814296
908.0,0.0443033489146107
912.0,0.07531343929650068
916.0,0.08504044797579828
920.0,0.12153632680070627
924.0,0.14440861066526006
928.0,0.16183264240747802
932.0,0.17166335791703952
936.0,0.19019532964416755
940.0,0.22640652801834368
944.0,0.21919367323443437
948.0,0.24220992419578344
952.0,0.25567850762301514
956.0,0.27530968019811775
960.0,0.26603111079223696
964.0,0.2718716625727471
968.0,0.29257215835973577
972.0,0.29268297178998404
976.0,0.29399617233438047
980.0,0.3006194994011379
984.0,0.290631672855061
988.0,0.28269340037300644
992.0,0.29088352751030255
996.0,0.27631763489599287
1000.0,0.27708713784557537
1004.0,0.26531290620672854
1008.0,0.2606775387277548
1012.0,0.23464153272303773
1016.0,0.22494384158831143
1020.0,0.21188944390586578
1024.0,0.18543236538224955
1028.0,0.17200016366814216
1032.0,0.1473409573845468
1036.0,0.12005960566694823
1040.0,0.10132147619324594
1044.0,0.09297970666427954
1048.0,0.07241697492980571
1052.0,0.04056790029449227
1056.0,0.027042841919418324
1060.0,-0.0016074904471065111
1064.0,-0.02486764526241851
1068.0,-0.0011428057129429024
1072.0,-0.01515869696202431
1076.0,0.0015164051420713408
1080.0,0.0027321310303022456
1084.0,0.009582991009478108
1088.0,-0.0004151374513269941
1092.0,0.00615811062244809
1096.0,-0.008278328424140523
1100.0,-0.008421703955953267
1104.0,-0.0009109670663399929
1108.0,-0.009034212431489209
1112.0,-0.01494922687224299
1116.0,-0.003762437781904679
1120.0,-0.0026077444262899113
1124.0,-0.02262889467502163
1128.0,-0.005552341722485447
1132.0,-0.005672635512003763
1136.0,-0.017675953346131198
1140.0,-0.007587307532597074
1144.0,-0.012129915802462022
1148.0,0.006271229053490215
1152.0,-0.011474355492138743
1156.0,-0.0018911709420667139
1160.0,0.008131398362885492
1164.0,-0.0029037692691580314
1168.0,0.011835866163136506
1172.0,-0.007507272863216388
1176.0,-0.0033138131644338416
1180.0,-0.0006318611839905797
1184.0,-0.006733078414960506
1188.0,0.010984188075762869
1192.0,-0.01530012020217217
1196.0,0.004688426580496025
1200.0,-0.004815896940453927
1204.0,-0.0004313343289586004
1208.0,-0.005457075338056724
1212.0,-0.01246114364701521
1216.0,0.019589553022440864
1220.0,-5.389606718171554e-05
1224.0,0.002939866322195712
1228.0,0.0021768886904380063
1232.0,-0.021787610633401854
1236.0,-0.0021008022766702264
1240.0,0.006710779242343995
1244.0,0.015204813097505081
1248.0,0.0030510489265370383
1252.0,-0.007354517008471525
1256.0,0.00616539812015074
1260.0,-0.007947130485674105
1264.0,-0.01140558503377352
1268.0,0.010060284165831435
1272.0,0.004146217562523847
1276.0,-0.0172920177610823
1280.0,-0.016692584468496387
1284.0,0.007063010562086289
1288.0,-0.003384471913000137
1292.0,-0.004094652788156827
1296.0,-0.01561294993418608
1300.0,-0.007216066153047158
1304.0,0.013282627909934782
1308.0,0.013118459117055116
1312.0,-0.011739354115134132
1316.0,0.0035490457149118387
1320.0,0.00932367022149047
1324.0,0.007651564772242003
1328.0,-0.010554688200767628
1332.0,0.004773895484014667
1336.0,-0.001645937985954103
1340.0,0.01104070137106594
1344.0,0.008389429901947368
1348.0,-0.010044310602883964
1352.0,-0.003919875684791541
1356.0,-0.005771725557350242
1360.0,0.007807921184592514
1364.0,0.012767530036625216
1368.0,0.002110040990285931
1372.0,-0.0070179469685483446
1376.0,0.01830940656835333
1380.0,-0.007436540415943385
1384.0,-0.008254162821177689
1388.0,0.002339014971992379
1392.0,-0.00759363954884512
1396.0,-0.003404467069260693
1400.0,0.049331549046971304
1404.0,0.05906552470676282
1408.0,0.09281542010155876
1412.0,0.12116156493614745
1416.0,0.14890502287241014
1420.0,0.1485899226441197
1424.0,0.1945747556874004
1428.0,0.22036128232563562
1432.0,0.2141298601367871
1436.0,0.23662731776874424
1440.0,0.27396133261038524
1444.0,0.2458825831308605
1448.0,0.2494976111510792
1452.0,0.25318522589991027
1456.0,0.22912254062587512
1460.0,0.21812866982434734
1464.0,0.20764441445733725
1468.0,0.1969643336242545
1472.0,0.16724250106775745
1476.0,0.14910844286879868
1480.0,0.13074092867063714
1484.0,0.0885496502690601
1488.0,0.05545283954265008
1492.0,0.030215304292898017
1496.0,-0.010854967175338697
1500.0,0.0011633634239340196
1504.0,0.012197270621198741
1508.0,0.0010227045848676232
1512.0,-0.024357452864183577
1516.0,0.0010195031594031035
1520.0,-0.00681043893178352
1524.0,-0.019474826562698475
1528.0,-0.00511228904067157
1532.0,0.02020396995173335
1536.0,0.0034973777948028974
1540.0,-0.04033819280058575
1544.0,-0.07541933735141888
1548.0,-0.12343806368921197
1552.0,-0.16604298379922952
1556.0,0.00043038368009303533
1560.0,0.08417133833924567
1564.0,0.19432012616255742
1568.0,0.31757950641905625
1572.0,0.40001161425146936
1576.0,0.4799325811347037
1580.0,0.5815710849396387
1584.0,0.6999996383600061
1588.0,0.7811462878818393
1592.0,0.8879993939297092
1596.0,0.978844838465853
1600.0,0.8974345446078147
1604.0,0.796445924265232
1608.0,0.6830719917928252
1612.0,0.5917096471378537
1616.0,0.48055092082366585
1620.0,0.39927603651347293
1624.0,0.30439476736496557
1628.0,0.1879102050093031
1632.0,0.11549881404220025
1636.0,0.011873432178358638
1640.0,-0.05121677087682543
1644.0,-0.11746527197311615
1648.0,-0.1931320513891252
1652.0,-0.24699002362034594
1656.0,-0.2890083564734229
1660.0,-0.2284968401974287
1664.0,-0.19461120228479573
1668.0,-0.11734620623983372
1672.0,-0.04649255147094977
1676.0,-0.03598967566556232
1680.0,-0.06320230406671198
1684.0,-0.029143903071848495
1688.0,-0.0375688953196266
1692.0,-0.029758780910593762
1696.0,-0.032029132530615206
1700.0,-0.023682123269483015
1704.0,-0.023551384052135024
1708.0,-0.023361436672112053
1712.0,-0.04723369297710594
1716.0,-0.02702312612583444
1720.0,-0.028523412717504006
1724.0,-0.012289422028619927
1728.0,-0.004165550030699135
1732.0,-0.020241180978363953
1736.0,-0.012481347569298883
1740.0,-0.014394558695891065
1744.0,0.007247323645555231
1748.0,-0.005786387310226278
1752.0,0.0026404863227291434
1756.0,-0.00738335156722157
1760.0,0.035097848448090975
1764.0,0.03432157735802056
1768.0,0.06507512676925863
1772.0,0.09391736194351145
1776.0,0.10122636909740272
1780.0,0.12260780223701427
1784.0,0.13784208255400868
1788.0,0.18015256275579128
1792.0,0.20566787790006946
1796.0,0.2097523286655983
1800.0,0.21920333788869006
1804.0,0.23398723457299359
1808.0,0.24829353540398813
1812.0,0.26764781890260597
1816.0,0.2597447956664458
1820.0,0.28155755151902456
1824.0,0.26566091460257146
1828.0,0.3009525860662319
1832.0,0.3066712822219987
1836.0,0.3067232479905424
1840.0,0.28938141645928783
1844.0,0.2905062960820051
1848.0,0.287322345121188
1852.0,0.2848574832428302
1856.0,0.2724967591729252
1860.0,0.25915244243766056
1864.0,0.24280930544423776
1868.0,0.2381024595498211
1872.0,0.22998058878978647
1876.0,0.19621149541860208
1880.0,0.20143071356138606
1884.0,0.16589428616250754
1888.0,0.16565777131167658
1892.0,0.13502714078920813
1896.0,0.10398518472010164
1900.0,0.08012226967639378
1904.0,0.07550903479406906
1908.0,0.040718233175645324
1912.0,0.00542240527982548
1916.0,0.003307604661219392
1920.0,0.0028497941073927177
1924.0,-0.008217712396868495
1928.0,0.0062597059106229815
1932.0,0.003783656817811685
1936.0,-0.001243617869483734
1940.0,0.002877493280776912
1944.0,-0.002058215838422132
1948.0,-0.008265160215330662
1952.0,-0.0019588929885245394
1956.0,0.0010428970428771592
1960.0,0.005073326436571977
1964.0,-0.0017538778069909316
1968.0,-0.011104364076186833
1972.0,0.00576297921299339
1976.0,-0.011274614639947857
1980.0,0.013659839511557881
1984.0,-0.0015827270652945145
1988.0,-0.020748529177625052
1992.0,-0.0050889552452524
1996.0,-0.014177948061458823
2000.0,0.0010411805833351485
2004.0,-0.0031066754277371935
2008.0,0.010371188401446338
2012.0,0.0005520390345257597
2016.0,0.005721801479275886
2020.0,0.0021380292132263975
2024.0,-0.02120290657485178
2028.0,0.0040962166987721215
2032.0,0.028448024307982572
2036.0,-0.00431352880067775
2040.0,0.014042234233715352
2044.0,0.0011952974176377956
2048.0,0.02080803024912508
2052.0,0.002957043541276306
2056.0,0.00904091113257624
2060.0,-0.011425833712973598
2064.0,-0.00597800719246597
2068.0,-0.007075332390870671
2072.0,0.0029203342505839574
2076.0,-0.01318050530503071
2080.0,-0.0010941862135919488
2084.0,0.017955701365883973
2088.0,0.015106033018222198
2092.0,0.014962816797387769
2096.0,0.002081028802098386
2100.0,-0.01735120589661106
2104.0,-0.000390401246825854
2108.0,0.011203605012635714
2112.0,0.010610945592298183
2116.0,0.002257246817313292
2120.0,0.0013705998771101433
2124.0,0.005251323211678204
2128.0,-0.00015932642987507645
2132.0,-0.013016989014689222
2136.0,-0.008476563122587169
2140.0,-0.004386646287485697
2144.0,-0.0008493910823647829
2148.0,0.008906051011305567
2152.0,-0.010539083038578487
2156.0,0.011276829380091452
2160.0,-0.007417772557588239
2164.0,0.0018413730392332233
2168.0,-0.0021386013655202273
2172.0,0.001262162893078145
2176.0,0.011141096011426599
2180.0,0.02097605116956034
2184.0,-0.012426139885859975
2188.0,-0.01338324971351377
2192.0,0.009528858672519035
2196.0,-0.014107928999643584
2200.0,0.004124263392113042
2204.0,0.021582918320263628
2208.0,0.015333637898676847
2212.0,-0.010983108109432187
2216.0,0.005544959442485229
2220.0,-0.00980222206554763
2224.0,0.008586467426799128
2228.0,0.015952616995235674
2232.0,0.013591373420352507
2236.0,-0.011740960151502073
2240.0,0.002301650089008215
2244.0,-0.004086468164304414
2248.0,-0.020434755498230258
2252.0,0.003728151881788117
2256.0,0.03987273326855594
2260.0,0.0835427264305536
2264.0,0.11570502343988358
2268.0,0.13868780414907214
2272.0,0.15491753198184974
2276.0,0.18149056225340326
2280.0,0.19430665462907787
2284.0,0.21282864781938093
2288.0,0.21847083208336088
2292.0,0.25026960765029754
2296.0,0.2525502934802063
2300.0,0.25263205031067737
2304.0,0.2562063942332209
2308.0,0.25780216424055363
2312.0,0.24596930533900843
2316.0,0.24241550682877921
2320.0,0.2274246989761639
2324.0,0.20705700362687476
2328.0,0.19713863416132715
2332.0,0.15257417755084868
2336.0,0.14184685009535902
2340.0,0.10648444899187462
2344.0,0.07102944260557345
2348.0,0.013805766736525425
2352.0,-0.006568121752062489
2356.0,-0.0002079482625277366
2360.0,0.005058254989147941
2364.0,-0.0020351008951259453
2368.0,-0.0034900681802653593
2372.0,-0.012796363768289836
2376.0,0.013888761315499216
2380.0,-0.004341924127835706
2384.0,0.005856267134381202
2388.0,0.008048766664283105
2392.0,0.016146288906673106
2396.0,-0.034933816295236425
2400.0,-0.07617784115217525
2404.0,-0.11386788417318085
2408.0,-0.16100936937717686
2412.0,0.003867558202074947
2416.0,0.10855404552666031
2420.0,0.19095453012527933
2424.0,0.3123516048702291
2428.0,0.40937323795175956
2432.0,0.5028807909203021
2436.0,0.6182749262667767
2440.0,0.7212790537799654
2444.0,0.8066591301969825
2448.0,0.9404924038350433
2452.0,1.017275634385391
2456.0,0.9128771253944439
2460.0,0.8104495288357841
2464.0,0.72646056430798
2468.0,0.6135180856677445
2472.0,0.5114295555661299
2476.0,0.40574298810696907
2480.0,0.317030715485478
2484.0,0.20736059635988285
2488.0,0.09153504994430131
2492.0,0.00385729815614875
2496.0,-0.049551966127328755
2500.0,-0.11180403708105159
2504.0,-0.19742380190875838
2508.0,-0.2464770800825727
2512.0,-0.3065768091886661
2516.0,-0.242873238917003
2520.0,-0.18198543429812256
2524.0,-0.12885015853152632
2528.0,-0.0712611052935066
2532.0,-0.04603866576327099
2536.0,-0.04850324073900637
2540.0,-0.03771011583943998
2544.0,-0.035409812957976745
2548.0,-0.03169271231073838
2552.0,-0.047203337673477466
2556.0,-0.05259400000307844
2560.0,-0.023483029683759024
2564.0,-0.018088241380445333
2568.0,-0.026385715361377425
2572.0,-0.03999736828551337
2576.0,-0.013165545932368903
2580.0,-0.015609640868428516
2584.0,-0.015915411087416988
2588.0,-0.0015444706069142715
2592.0,-8.689906720142637e-06
2596.0,-0.0028902779350473496
2600.0,-0.013914784630236054
2604.0,-0.020418058625781586
2608.0,-0.012097067878919355
2612.0,-0.0034441263634657033
2616.0,0.018646902798908335
2620.0,0.027674672744029856
2624.0,0.0918341652479556
2628.0,0.08554183852150711
2632.0,0.11674704710674372
2636.0,0.1382894318908897
2640.0,0.15256300624812633
2644.0,0.18484199252578484
2648.0,0.21605633347812592
2652.0,0.23030272159505633
2656.0,0.22689801496394538
2660.0,0.2652673708287445
2664.0,0.2628057371370388
2668.0,0.2684089891239098
2672.0,0.28874711886446913
2676.0,0.2906317299143323
2680.0,0.2890714594957844
2684.0,0.30446227118417785
2688.0,0.3142314606979628
2692.0,0.30581181581483885
2696.0,0.3007362299091319
2700.0,0.30155638349694946
2704.0,0.30564253422753557
2708.0,0.2930706272365603
2712.0,0.278962194401528
2716.0,0.2663920948538055
2720.0,0.27391050747990137
2724.0,0.25372784914511337
2728.0,0.2336704691278419
2732.0,0.2004325634610881
2736.0,0.20590041572164405
2740.0,0.18112295756816196
2744.0,0.17428869291836327
2748.0,0.1302133239160777
2752.0,0.12057833964428136
2756.0,0.08384948965866999
2760.0,0.08401544372138771
2764.0,0.04582729985462707
2768.0,0.026234371694395815
2772.0,0.007890611976796138
2776.0,0.005562125603560551
2780.0,-0.0016949164010596127
2784.0,0.004012908046683832
2788.0,-0.00630807217489023
2792.0,0.010884254672025848
2796.0,0.009280614771125599
2800.0,-0.005428225454769916
2804.0,0.013715299583245513
2808.0,0.00768644270141054
2812.0,-0.0007201430913992815
2816.0,0.003451874941998912
2820.0,-0.016083207832611322
2824.0,-0.014301499945370156
2828.0,-0.0012526991796472252
2832.0,-0.0015832990435899693
2836.0,-0.007952946580957949
2840.0,-0.020544917203621824
2844.0,-0.01902790526828832
2848.0,0.007447933795921905
2852.0,0.007045108987799962
2856.0,0.006101951914782933
2860.0,-0.011849041190533947
2864.0,0.015542478321741398
2868.0,-0.005979789927315848
2872.0,-0.009634838236788998
2876.0,-0.004389029440900145
2880.0,-0.004333577791034244
2884.0,0.007149485342989203
2888.0,-0.004929464034607991
2892.0,0.00436902003732081
2896.0,0.003274604825397261
2900.0,-0.014151509690840952
2904.0,0.0026180129886865413
2908.0,0.006893412505785305
2912.0,-0.002723165622778917
2916.0,0.014703776040771267
2920.0,-0.0036514316636134265
2924.0,0.010999215442468622
2928.0,0.007165390457354634
2932.0,-0.011320779386715517
2936.0,-0.006742320685823623
2940.0,-0.012044711860116354
2944.0,-0.004128592389910551
2948.0,-0.0050888845856981255
2952.0,0.011056491245699938
2956.0,-0.009350446716255106
2960.0,0.011598510199087335
2964.0,-0.011523468639627995
2968.0,-0.004763391178662986
2972.0,0.00987202642220218
2976.0,-0.0006582296751657862
2980.0,0.00954643348206046
2984.0,0.004730064075960755
2988.0,-0.016350553543859767
2992.0,-0.013948150098583127
2996.0,0.008258379079934541
3000.0,0.0003964441835268299
3004.0,0.007460060439942314
3008.0,-0.0019789900570636757
3012.0,0.0021340852186829866
3016.0,-0.0020654040999942723
3020.0,0.006067310158093192
3024.0,0.0016202604001166268
3028.0,-0.0096981524476128
3032.0,-0.0005711505963125882
3036.0,0.002704411493545579
3040.0,0.007504275958841665
3044.0,0.003955928266521565
3048.0,-0.021988567772332823
3052.0,0.011146106289426265
3056.0,0.014820649410200972
3060.0,-0.00968946455423476
3064.0,0.011649692976293521
3068.0,-0.009711034300331689
3072.0,0.009159421756944322
3076.0,-0.01028374354793191
3080.0,-0.010502147583096134
3084.0,0.011524994610032426
3088.0,0.003603956370687726
3092.0,0.008294994418506235
3096.0,-0.009534358966116015
3100.0,-0.0030809954037812034
3104.0,-0.008016895489201151
3108.0,0.01306535204397383
3112.0,0.043105371417835485
3116.0,0.07728766400461203
3120.0,0.10374881275567946
3124.0,0.10877068095579345
3128.0,0.14840445937629163
3132.0,0.1695186758761283
3136.0,0.18671796259642204
3140.0,0.23535481893113067
3144.0,0.23914373319390062
3148.0,0.24027028816092588
3152.0,0.24330745876296003
3156.0,0.25933745708426287
3160.0,0.2557852086602875
3164.0,0.260034775397643
3168.0,0.23578181193363545
3172.0,0.22666399803674095
3176.0,0.2183573942558011
3180.0,0.18118966314530727
3184.0,0.1815166373752856
3188.0,0.15069574046783418
3192.0,0.11911880442134794
3196.0,0.10013082204556142
3200.0,0.044942502143669544
3204.0,0.04465886046471133
3208.0,0.007487282682099241
3212.0,0.007013571287334867
3216.0,0.01002207974148042
3220.0,-0.008783806265622748
3224.0,0.00665133271604287
3228.0,0.00039855100299328165
3232.0,0.014109024258918116
3236.0,0.006996388794992422
3240.0,0.007140753327671199
3244.0,0.007806556753747951
3248.0,-0.008335906839419904
3252.0,-0.023011110181167325
3256.0,-0.07370531382564917
3260.0,-0.12417569536557485
3264.0,-0.1695284942984338
3268.0,0.016736275052080477
3272.0,0.09425285781516088
3276.0,0.20531344981242364
3280.0,0.29330336040770416
3284.0,0.4320798830324968
3288.0,0.5128481390639466
3292.0,0.6288208197076054
3296.0,0.7297501529576079
3300.0,0.8257424252888037
3304.0,0.9304441608489524
3308.0,1.0246015629966778
3312.0,0.9679336939074821
3316.0,0.8215295672406604
3320.0,0.7471689661954185
3324.0,0.6275229845985753
3328.0,0.5222601108199505
3332.0,0.42672234614319093
3336.0,0.31940878973271897
3340.0,0.19603770857035638
3344.0,0.11945883656062556
3348.0,0.0030518364385974796
3352.0,-0.04532805215080679
3356.0,-0.12692527680044527
3360.0,-0.17175117558970743
3364.0,-0.23518976765070893
3368.0,-0.3105181843616672
3372.0,-0.2550729317436417
3376.0,-0.17911532286730592
3380.0,-0.11888722980269224
3384.0,-0.06699682366453825
3388.0,-0.03751956331948623
3392.0,-0.0539071348129636
3396.0,-0.05333098964432494
3400.0,-0.04329032822266115
3404.0,-0.044692626385986624
3408.0,-0.04260977540561636
3412.0,-0.05403737785843182
3416.0,-0.042586417980475376
3420.0,-0.032252142196261865
3424.0,-0.038629784090656274
3428.0,-0.026201160910268844
3432.0,-0.030957561990272872
3436.0,-0.01173648015581878
3440.0,-0.010444469430866282
3444.0,-0.005962154339704795
3448.0,-0.018664784697173295
3452.0,-0.011492669931226092
3456.0,0.009791219197429634
3460.0,-0.008380656651056395
3464.0,-0.00816552706019699
3468.0,-0.005853275865846545
3472.0,0.01698551411873201
3476.0,0.06429476823774265
3480.0,0.08132065996450183
3484.0,0.09997927280038546
3488.0,0.12129575762711779
3492.0,0.14595486036059582
3496.0,0.1598637329774833
3500.0,0.17423186108675925
3504.0,0.20540589755363928
3508.0,0.20931950485521617
3512.0,0.24267156273751836
3516.0,0.24801988174849915
3520.0,0.2815913849612313
3524.0,0.27316851434032996
3528.0,0.3007531520103553
3532.0,0.30306181113972247
3536.0,0.3062738530547828
3540.0,0.3087391884088674
3544.0,0.33473237404345796
3548.0,0.3175961834476335
3552.0,0.3302204323874236
3556.0,0.3298172858951884
3560.0,0.2897971355142419
3564.0,0.3000344026473456
3568.0,0.2832074782674952
3572.0,0.2705611825105178
3576.0,0.2513666145150684
3580.0,0.2641912600774485
3584.0,0.24216606881226088
3588.0,0.23069605837513724
3592.0,0.19915562857096708
3596.0,0.18503662116835778
3600.0,0.15459012418880388
3604.0,0.13491215362600148
3608.0,0.12213413534981986
3612.0,0.09405524719512263
3616.0,0.06381469256992864
3620.0,0.028204776848732783
3624.0,0.02982555083016702
3628.0,0.0046067270833505276
3632.0,-0.00428015311755292
3636.0,0.019332480286433706
3640.0,-0.0033828259066935413
3644.0,-0.010607430508862866
3648.0,0.00615640295324689
3652.0,0.019641500019258698
3656.0,-0.00375719748792792
3660.0,0.008604384910030466
3664.0,0.011344299504604125
3668.0,0.01397039557579946
3672.0,0.0020246599337039738
3676.0,0.01129992522854767
3680.0,-0.004900280799486291
3684.0,0.010243112618561792
3688.0,-0.0016773471444324912
3692.0,0.0019875427501677653
3696.0,0.013945048144772227
3700.0,0.0047714128614457256
3704.0,0.009967257772930359
3708.0,0.00042967957583276795
3712.0,0.005766307806450304
3716.0,-0.0013939765410765053
3720.0,0.009281273546417758
3724.0,-0.008736572996123121
3728.0,-0.008914768717351296
3732.0,0.010420788866253791
3736.0,-0.006524720390070516
3740.0,0.003523964288456997
3744.0,0.011873888034799643
3748.0,-0.009582054865462099
3752.0,-0.0005888680110205418
3756.0,0.008657043233319627
3760.0,0.004483909026402377
3764.0,0.0027220456227128177
3768.0,0.01252256652374509
3772.0,-0.014763520558195383
3776.0,0.007340437066155916
3780.0,-0.00812735101919547
3784.0,-0.004820387118461029
3788.0,0.019530428426600056
3792.0,-0.016814401770212845
3796.0,-0.0018402753052038656
3800.0,0.012031973046973453
3804.0,0.0060028709010701165
3808.0,0.0025197406481384525
3812.0,-0.004720202471458517
3816.0,-0.013033455531383836
3820.0,0.0015883565450741056
3824.0,0.0017491876705399876
3828.0,0.007676889242848081
3832.0,-0.012651864021614992
3836.0,-0.0202753750330454
3840.0,-9.942130964524957e-05
3844.0,0.006346472828762832
3848.0,0.0011654477186163045
3852.0,0.004831919064215013
3856.0,0.006406771760003475
3860.0,0.007287678184811337
3864.0,0.00534480142855499
3868.0,0.004345973483166509
3872.0,-0.010289698147902085
3876.0,0.006017670491335656
3880.0,-0.013385154234923648
3884.0,-0.006696995110223384
3888.0,-0.016092329272066563
3892.0,0.013031999170725296
3896.0,0.0027437713103914624
3900.0,-0.0038822100120680324
3904.0,0.0016783507566985965
3908.0,0.024613296022971874
3912.0,0.007577476840583975
3916.0,-0.007098966494759151
3920.0,0.008260418528222657
3924.0,-0.006097507901199933
3928.0,-0.0016500754526918946
3932.0,-0.000798114796707758
3936.0,0.00438216515644061
3940.0,-0.01184678094471901
3944.0,0.0027487777439435764
3948.0,0.0023249057710438316
3952.0,-0.010378574406967472
3956.0,0.003353839931563238
3960.0,-0.019735677940323354
3964.0,-0.002660677358723835
3968.0,0.03442576548282603
3972.0,0.06566232661482
3976.0,0.08335156309027686
3980.0,0.11075643683481144
3984.0,0.1538235117432228
3988.0,0.17607820217763506
3992.0,0.1848274897974101
3996.0,0.1876728992153216
4000.0,0.22416671000722793
4004.0,0.22880860858664548
4008.0,0.23340720409336418
4012.0,0.24468395461821052
4016.0,0.25504299388435503
4020.0,0.22701941710258372
4024.0,0.22586271263535668
4028.0,0.2387876457261951
4032.0,0.21154346085664766
4036.0,0.18924749634570073
4040.0,0.17070578729959673
4044.0,0.15301060617451903
4048.0,0.12288493711450932
4052.0,0.08501383194321754
4056.0,0.05158212498910723
4060.0,0.028277280572455585
4064.0,0.0005116065843153813
4068.0,-0.007576985247421199
4072.0,-0.009161333315606543
4076.0,-0.0014917639497120697
4080.0,0.0174302147457782
4084.0,0.0025867608532527788
4088.0,-0.0003075908087231475
4092.0,-0.01502690456278809
4096.0,0.0005001697252354775
4100.0,0.011060802198243767
4104.0,0.004736910180141366
4108.0,-0.035833612763291035
4112.0,-0.09348380187443192
4116.0,-0.11403599571797378
4120.0,-0.1663471085580868
4124.0,-0.01655400024975869
4128.0,0.10539371051893273
4132.0,0.19989389565572266
4136.0,0.29529170210532035
4140.0,0.38229792093462733
4144.0,0.5146812616547903
4148.0,0.5996620085107504
4152.0,0.7036950214926806
4156.0,0.7908308327819709
4160.0,0.874670806140903
4164.0,0.9993443839886565
4168.0,0.8755872199209963
4172.0,0.8000858211039664
4176.0,0.684264280812681
4180.0,0.5808220982313647
4184.0,0.489680898156416
4188.0,0.40629842689950546
4192.0,0.28507102257530226
4196.0,0.1934767549886611
4200.0,0.0941256056755697
4204.0,0.006573721943748434
4208.0,-0.06025945096892085
4212.0,-0.11711008757057852
4216.0,-0.19503909905731862
4220.0,-0.2337792765132721
4224.0,-0.30164235902468334
4228.0,-0.23685305721698655
4232.0,-0.1694859765276146
4236.0,-0.11100180133605446
4240.0,-0.06904553939775816
4244.0,-0.04113328568590528
4248.0,-0.04902696947079549
4252.0,-0.047494587801021955
4256.0,-0.04402744183313599
4260.0,-0.04563904585196743
4264.0,-0.022385733210682976
4268.0,-0.025196358472247153
4272.0,-0.03856163297302709
4276.0,-0.0357118156357281
4280.0,-0.016301734725996712
4284.0,-0.01656464402698473
4288.0,-0.04600770200076718
4292.0,-0.030190686694254523
4296.0,-0.018606830887720305
4300.0,-0.027968269055103714
4304.0,-0.01305294914367341
4308.0,-0.018333178449147256
4312.0,0.0003907173298562088
4316.0,-0.005145640041254984
4320.0,-0.002236134753138307
4324.0,0.016722410180257656
4328.0,0.02908254423959916
4332.0,0.06866417081896709
4336.0,0.07720883352822139
4340.0,0.08958014809576183
4344.0,0.12212118608437146
4348.0,0.12861074316863855
4352.0,0.13802711779011792
4356.0,0.17791902355928976
4360.0,0.20596388315926156
4364.0,0.21205741570578707
4368.0,0.22897780709781038
4372.0,0.224450900096064
4376.0,0.2493684929799946
4380.0,0.25707959008761844
4384.0,0.27828767145846367
4388.0,0.28349267339807577
4392.0,0.28414061583756794
4396.0,0.29595909928894554
4400.0,0.3071964438777036
4404.0,0.29753986314670944
4408.0,0.2966399990259199
4412.0,0.29147640629820026
4416.0,0.30272434608516285
4420.0,0.2793745268614855
4424.0,0.27429936318720005
4428.0,0.26854088148546035
4432.0,0.23529669232631914
4436.0,0.22981097537216216
4440.0,0.22457887721447528
4444.0,0.20731301486288128
4448.0,0.2108620165595826
4452.0,0.18335741483716606
4456.0,0.15851373714457423
4460.0,0.1258624163710372
4464.0,0.10546084018869899
4468.0,0.08895680362137538
4472.0,0.05227195612893498
4476.0,0.049991296634966195
4480.0,0.011407385807146564
4484.0,-0.004690575606523052
4488.0,0.0016874381969353273
4492.0,-0.014112266829521299
4496.0,-0.0028113691952417297
4500.0,0.013527965467062449
4504.0,0.015474769801094223
4508.0,0.01861505123040028
4512.0,0.012550973203785938
4516.0,0.0032498071106764476
4520.0,-0.004451261804802323
4524.0,-0.00683881278043689
4528.0,0.003610414520491787
4532.0,0.0008166906589734496
4536.0,0.005750332833246671
4540.0,0.009245488591642747
4544.0,-0.005095624057067501
4548.0,-0.007023665667604035
4552.0,-0.010265774113569838
4556.0,-0.009798512304051325
4560.0,-0.0124096377045666
4564.0,-0.02088740601531818
4568.0,0.006056697301977708
4572.0,0.012024189608578633
4576.0,0.0013317057252767198
4580.0,0.01909776113520066
4584.0,-0.0162915727941646
4588.0,-0.009380472478622231
4592.0,-0.002655740195198909
4596.0,0.0063353004837893336
4600.0,-0.0036730550330190646
4604.0,-0.004111243557153638
4608.0,-0.00565391581859832
4612.0,-0.02970367047351082
4616.0,-0.0009513453698919678
4620.0,-0.0031415112638009056
4624.0,-0.02076660313898007
4628.0,-0.007390549487199523
4632.0,0.00543537516631088
4636.0,0.011229844554962749
4640.0,-0.021174029154475874
4644.0,0.00958371344479548
4648.0,0.007963296587290012
4652.0,0.012215967819143537
4656.0,0.010016400892485167
4660.0,-0.01645780263761868
4664.0,-0.006432468496510886
4668.0,0.0011733655757289652
4672.0,-0.013565599057270806
4676.0,-0.0005478887803272349
4680.0,0.02194492661089403
4684.0,0.0010976357515858157
4688.0,-0.0016223536447174671
4692.0,0.0004189972561646198
4696.0,-0.0003566466307260943
4700.0,0.006405911624775162
4704.0,0.008513564404441225
4708.0,-0.0018594740258043264
4712.0,0.007338685086863683
4716.0,-0.00690761384301732
4720.0,0.012640756370311678
4724.0,-0.009703132099187736
4728.0,0.011572667271784865
4732.0,-0.009550434304354203
4736.0,0.00046520782793901073
4740.0,-0.0011199590481636432
4744.0,0.014231663323809799
4748.0,0.02376906300844007
4752.0,0.0025873993301493287
4756.0,-0.008607291104387085
4760.0,0.004077677439609413
4764.0,0.008492390322371706
4768.0,-0.0022876806502277343
4772.0,0.015922357612623696
4776.0,-4.60730101299365e-06
4780.0,0.006345796743926184
4784.0,0.014000684197024153
4788.0,-0.014391315197111208
4792.0,-0.012328738486857858
4796.0,0.002745647231855324
4800.0,0.0006181698057444193
4804.0,-0.010761199123050584
4808.0,-0.004024051564303721
4812.0,-0.0006556040238410254
4816.0,-0.004678348802086051
4820.0,0.016491370969751715
4824.0,0.03854816512114275
4828.0,0.048819026963948894
4832.0,0.10141997172336047
4836.0,0.13729093013900093
4840.0,0.13994215760531403
4844.0,0.17719518209466587
4848.0,0.1872390009941319
4852.0,0.2026551203971663
4856.0,0.2159496879906079
4860.0,0.23853762820914176
4864.0,0.24864460497433466
4868.0,0.2547837443016144
4872.0,0.25138659705933325
4876.0,0.25156223449844184
4880.0,0.24044107501831924
4884.0,0.21666912555418288
4888.0,0.21784491064961242
4892.0,0.18475295995800747
4896.0,0.16206749653218339
4900.0,0.13637861760019634
4904.0,0.12027649308942072
4908.0,0.08870540181335758
4912.0,0.05444592012321374
4916.0,0.02159485915877872
4920.0,-0.004739567659239365
4924.0,-0.002683314609922602
4928.0,0.00834395023469192
4932.0,0.009864027735809036
4936.0,-0.006506396835308553
4940.0,0.005667359397187992
4944.0,-0.011704822580126463
4948.0,-0.007433509321547519
4952.0,0.008423644339482162
4956.0,-0.000187540002048938
4960.0,0.003153505344185573
4964.0,-0.04608106146398771
4968.0,-0.09405206012252801
4972.0,-0.13298482197841074
4976.0,-0.16495578821309526
4980.0,-0.0026379218655002722
4984.0,0.09587419882647319
4988.0,0.2079376869230016
4992.0,0.29075710599395554
4996.0,0.38962378958808425
5000.0,0.511643059030993
5004.0,0.5925405201322901
5008.0,0.6843641304542595
5012.0,0.793003618603329
5016.0,0.9017071557324032
5020.0,0.9957728550410768
5024.0,0.8849474780614615
5028.0,0.7966921218622737
5032.0,0.694009256527569
5036.0,0.6179298988387105
5040.0,0.5121064129152053
5044.0,0.40456843734532133
5048.0,0.3128431896300119
5052.0,0.18920984912944253
5056.0,0.09777314013936017
5060.0,-0.00599639298214679
5064.0,-0.058688763082213956
5068.0,-0.12181251730851143
5072.0,-0.18556001396338168
5076.0,-0.2304197668195034
5080.0,-0.28549210239349565
5084.0,-0.2681653318028957
5088.0,-0.18478069057229818
5092.0,-0.09977620327481497
5096.0,-0.04530898993671882
5100.0,-0.025120683866800508
5104.0,-0.024243392319312784
5108.0,-0.0390576635267805
5112.0,-0.041221222341540534
5116.0,-0.027737067509180598
5120.0,-0.043162044981924025
5124.0,-0.031205337568764674
5128.0,-0.01706903484312794
5132.0,-0.019717922688497487
5136.0,-0.0331985911410612
5140.0,-0.03208571930612404
5144.0,-0.0364273400348783
5148.0,-0.01605998276527109
5152.0,-0.015836834798466273
5156.0,0.006812588306900732
5160.0,-0.021682545989198304
5164.0,-0.0025284580192302866
5168.0,-0.004131945853150382
5172.0,0.0012856336326800772
5176.0,-0.0042040393912685875
5180.0,0.008637232203768237
5184.0,0.040033021826990464
5188.0,0.06995863075194794
5192.0,0.05715401044132774
5196.0,0.10285763369219775
5200.0,0.11037156324076998
5204.0,0.13103785587143188
5208.0,0.16935187459719422
5212.0,0.18256245411131825
5216.0,0.191785941099197
5220.0,0.21492431214810176
5224.0,0.23581530110065427
5228.0,0.2398190108513032
5232.0,0.265097582875993
5236.0,0.2779124966193579
5240.0,0.2604616931175042
5244.0,0.27466786604161325
5248.0,0.2785978658966886
5252.0,0.29072460276385537
5256.0,0.2991274591707602
5260.0,0.299966660629891
5264.0,0.29078949704424656
5268.0,0.30199842215128075
5272.0,0.28556930201362635
5276.0,0.2590400736605235
5280.0,0.2799401119297667
5284.0,0.27903785055696
5288.0,0.25066741939805126
5292.0,0.2263886645497629
5296.0,0.24999243072893687
5300.0,0.22689599875068964
5304.0,0.1962507766236937
5308.0,0.17350216006198907
5312.0,0.15569810377037457
5316.0,0.15588901434802668
5320.0,0.10100087409031944
5324.0,0.08211846198500522
5328.0,0.06998084318898425
5332.0,0.04225865210079445
5336.0,0.03905012773966276
5340.0,-0.01421053716722616
5344.0,0.007537225238614592
5348.0,0.012323908352851739
5352.0,0.0003812755032282305
5356.0,-0.0026839393844969445
5360.0,0.018671974367586986
5364.0,0.010943814267541978
5368.0,0.011788973586490224
5372.0,-0.006653587058013387
5376.0,0.0035241459054833517
5380.0,-0.004004304433065589
5384.0,-0.019207141491449083
5388.0,-0.009571287147826676
5392.0,0.004788458140344725
5396.0,0.011835789723478133
5400.0,-0.0009152175140452528
5404.0,-0.0071869815781740246
5408.0,-0.01000911113540141
5412.0,0.008179063332713746
5416.0,-0.004791992787837289
5420.0,-0.005157721968660962
5424.0,-0.008194444009598142
5428.0,0.0014492821213417152
5432.0,-0.025434558468480594
5436.0,-0.009362927161279497
5440.0,-0.012300021177564626
5444.0,-0.01870213101105298
5448.0,-0.0005102317879271811
5452.0,0.0016116372074228664
5456.0,-0.0034647358222789433
5460.0,0.007338576475595656
5464.0,-0.003648886792793145
5468.0,0.00788822181577759
5472.0,-0.0038670633752946786
5476.0,-0.011486709865027858
5480.0,0.01257300682977774
5484.0,0.001176917778145328
5488.0,0.0021154810123933153
5492.0,0.001302578700858742
5496.0,0.0020044839370639235
5500.0,0.002461235709110824
5504.0,0.013181293816954763
5508.0,0.007893519828941552
5512.0,0.010998346813561002
5516.0,-0.01205368271192042
5520.0,0.005150291042020309
5524.0,-0.018218882601115097
5528.0,0.0009088152081534694
5532.0,0.0024303273083466745
5536.0,-0.0010297529636342782
5540.0,0.008058205392704361
5544.0,-0.007365653777120062
5548.0,-0.002256415370614066
5552.0,0.004269064891963439
5556.0,-0.01834673778820915
5560.0,0.0016950123045661291
5564.0,0.01321418774522774
5568.0,0.009470799362768869
5572.0,-0.0050218226735211655
5576.0,0.0024208442009951716
5580.0,-0.02797437044298253
5584.0,-0.0030626989143120384
5588.0,0.002608090434072706
5592.0,0.0019168698686362394
5596.0,0.009713777758257453
5600.0,-0.005888097979265395
5604.0,-0.019775018557311057
5608.0,0.002423364540410341
5612.0,0.0035782544859612377
5616.0,0.006337168652983957
5620.0,-0.002333484052544105
5624.0,0.011005706634167682
5628.0,-0.007656338964869379
5632.0,0.005457662979542026
5636.0,0.002915062998463863
5640.0,-0.0024816200849213884
5644.0,0.015038755663896248
5648.0,-0.0045215743979455745
5652.0,0.0043435388858180015
5656.0,0.005250147114233336
5660.0,-0.00044430124702695236
5664.0,0.006099150155239842
5668.0,-0.004668449943576262
5672.0,-0.0003595442149916144
5676.0,0.004743275788310016
5680.0,0.04687375722296
5684.0,0.04895098437924048
5688.0,0.08363875228567555
5692.0,0.1265275076639864
5696.0,0.14541406203582757
5700.0,0.18247109072662215
5704.0,0.1902670211280298
5708.0,0.2209116898154211
5712.0,0.2094598023286703
5716.0,0.24216353003677416
5720.0,0.24517521952352642
5724.0,0.2389633617953897
5728.0,0.26428802316862454
5732.0,0.2504062381572535
5736.0,0.23204389419788543
5740.0,0.2110413352135987
5744.0,0.19872779525671147
5748.0,0.19626069946368135
5752.0,0.16054403008188287
5756.0,0.12613956631967596
5760.0,0.10696206954539939
5764.0,0.09612967733791533
5768.0,0.07433021321539811
5772.0,0.030482140683715853
5776.0,0.021803525788623285
5780.0,0.0006491430037255118
5784.0,-0.0035573694451860663
5788.0,-0.009226386451050048
5792.0,-0.0030759529093045096
5796.0,-0.011156440038756878
5800.0,-0.01307907235032213
5804.0,-0.004969811209203033
5808.0,-0.0037346045365679987
5812.0,0.005679916280913427
5816.0,-0.004955150306611575
5820.0,-0.03399929900748653
5824.0,-0.07835105781024529
5828.0,-0.11993788967879748
5832.0,-0.1442474131490604
5836.0,-0.011850342117414543
5840.0,0.10647569694894121
5844.0,0.20700255674170992
5848.0,0.2944599291411216
5852.0,0.4037221279996465
5856.0,0.5102330193977684
5860.0,0.5810682138564744
5864.0,0.6800546039190011
5868.0,0.7884288560165517
5872.0,0.8873078772591969
5876.0,0.971317651991579
5880.0,0.8850897210798726
5884.0,0.7680080360298089
5888.0,0.6951374636849733
5892.0,0.5791846088411291
5896.0,0.49787767037583996
5900.0,0.3952923421647241
5904.0,0.2762199660147339
5908.0,0.19421447361341906
5912.0,0.1043428224570068
5916.0,0.002033836539073254
5920.0,-0.06612852962124639
5924.0,-0.11667707569072659
5928.0,-0.17042747251360782
5932.0,-0.24008713108203805
5936.0,-0.3032477064969774
5940.0,-0.21556796427599142
5944.0,-0.16504688542529333
5948.0,-0.11923563660614488
5952.0,-0.04714497505598225
5956.0,-0.0485232007479126
5960.0,-0.055790766189242155
5964.0,-0.038202800707017794
5968.0,-0.05277525406876071
5972.0,-0.06625792524357284
5976.0,-0.049111571134320894
5980.0,-0.026244624452871238
5984.0,-0.019539896038070784
5988.0,-0.03117689241972032
5992.0,-0.02397580821475662
5996.0,-0.014154334951183149
6000.0,-0.03019693592382784
6004.0,-0.018771704571549697
6008.0,-0.011757885061938759
6012.0,-0.00898507185887901
6016.0,-0.009054743052166548
6020.0,-0.012942797606357843
6024.0,0.0001357109912402503
6028.0,-0.02337173959344699
6032.0,-0.0049055453511450894
6036.0,-0.009072989558461017
6040.0,0.02838763399721043
6044.0,0.01907860965222321
6048.0,0.06841159514617796
6052.0,0.07951020140394963
6056.0,0.1280310898882071
6060.0,0.13733440081408083
6064.0,0.1625738896912239
6068.0,0.15345144369763244
6072.0,0.1880106815047886
6076.0,0.20260895524476258
6080.0,0.21639919483848385
6084.0,0.23984941407155627
6088.0,0.2638242521514588
6092.0,0.27146165359698965
6096.0,0.2970601415465642
6100.0,0.2725775873409937
6104.0,0.2786599084671177
6108.0,0.31318675587548694
6112.0,0.2912343985499353
6116.0,0.3016063830555023
6120.0,0.3097152613451517
6124.0,0.29175080424333905
6128.0,0.29732949302465095
6132.0,0.26904514507514415
6136.0,0.26238379342320023
6140.0,0.2578105846264281
6144.0,0.2457076068894325
6148.0,0.2320089371797556
6152.0,0.21639279587477647
6156.0,0.20625168538195274
6160.0,0.17456145572633905
6164.0,0.16580848569048545
6168.0,0.17081796117840384
6172.0,0.13684193979783355
6176.0,0.1189369317981202
6180.0,0.07356030804004834
6184.0,0.0676314541737076
6188.0,0.03986417506443693
6192.0,0.006041412726330825
6196.0,-0.00543348231616684
6200.0,0.0035484720735828165
6204.0,0.005889796573013273
6208.0,0.007622332221237929
6212.0,-0.0030640954047546866
6216.0,0.009406252459078269
6220.0,0.012075447448245997
6224.0,-0.0023657037083262234
6228.0,0.0072563070137269025
6232.0,-0.0014455471226522223
6236.0,-0.003374215311625174
6240.0,-0.015309168284047516
6244.0,-0.0039771598736993655
6248.0,0.005908302071045158
6252.0,-1.5904198518727826e-05
6256.0,-0.001067409040495993
6260.0,-0.0036505808186782867
6264.0,0.010965308548924706
6268.0,0.003063215038523248
6272.0,-0.007440903963994693
6276.0,0.0038483343344286264
6280.0,-0.007351853489868546
6284.0,-0.007508175228702852
6288.0,-0.012077346347818896
6292.0,0.010515000270749536
6296.0,-0.011353386555173683
6300.0,-0.019497941717280982
6304.0,0.006694758721943702
6308.0,0.003805066708409952
6312.0,-0.00883900918356507
6316.0,-0.008508799328797403
6320.0,-0.00833962542232635
6324.0,-0.014735330405585974
6328.0,-0.006159327445771193
6332.0,0.0028620308714726833
6336.0,0.007713195184548941
6340.0,-0.014445420594668813
6344.0,-0.012208132230195044
6348.0,0.009987403265379106
6352.0,0.016638420077050405
6356.0,-0.007102938711611201
6360.0,-0.008008746657871867
6364.0,0.008201499220929049
6368.0,-0.025504097904256555
6372.0,0.002883232634670278
6376.0,0.004787681095177121
6380.0,-0.0011425086157149564
6384.0,0.011029326020971215
6388.0,0.00222907461664693
6392.0,-0.006098552010291777
6396.0,-0.019787714720097375
6400.0,0.005460548642022191
6404.0,-0.00041897725855457023
6408.0,-0.0032669489094980728
6412.0,0.0006913870398066039
6416.0,0.0019553796213021206
6420.0,0.0009137469874793679
6424.0,0.009358929235233005
6428.0,0.005386796584813296
6432.0,0.007136718546768077
6436.0,-0.0012685190917460943
6440.0,0.0011876476985258106
6444.0,-0.0019662846213150285
6448.0,0.00541916909465099
6452.0,-0.006087135825996099
6456.0,-0.0046209338933860785
6460.0,0.004739961515525063
6464.0,0.00020929787223118414
6468.0,0.007781208001855211
6472.0,-0.011775981902709176
6476.0,0.0021133064853898083
6480.0,-0.004080172447772222
6484.0,0.008722466673470895
6488.0,-5.578950296543669e-05
6492.0,0.01046365371919446
6496.0,-0.004664822910550435
6500.0,0.00882365716836884
6504.0,0.013275910948709842
6508.0,0.0014315678265624597
6512.0,-0.010841904175059407
6516.0,0.0022451938410054137
6520.0,0.008466477323321899
6524.0,-0.008912412285789314
6528.0,-0.010826918540483373
6532.0,-0.004362037957484513
6536.0,0.02234085506725523
6540.0,0.053479805749993004
6544.0,0.07880720195686985
6548.0,0.12525862670640459
6552.0,0.14954934792578958
6556.0,0.1947383539295651
6560.0,0.19535537014044557
6564.0,0.21746213856715121
6568.0,0.24401969357428402
6572.0,0.2459033689766939
6576.0,0.25223476081238305
6580.0,0.2603903688338111
6584.0,0.2550141742988983
6588.0,0.255901590523814
6592.0,0.23501340711670252
6596.0,0.2522511575456111
6600.0,0.2343485233211653
6604.0,0.19783191956015855
6608.0,0.1773548606161072
6612.0,0.14061038493767095
6616.0,0.12945249085150595
6620.0,0.10438695004966028
6624.0,0.06518651508057079
6628.0,0.03632797174619204
6632.0,0.005687532719968369
6636.0,0.0001842935558715401
6640.0,0.005591963948159219
6644.0,-0.00047644966303467647
6648.0,-0.0034225384970219107
6652.0,0.001870140143287701
6656.0,-0.004060488975575145
6660.0,-0.002901756472079174
6664.0,0.002599934160211605
6668.0,-0.0026653416404555093
6672.0,0.0010695947919105728
6676.0,-0.03874020517219908
6680.0,-0.07914595459040594
6684.0,-0.13903304212119733
6688.0,-0.16367011485783495
6692.0,-4.435690528408781e-05
6696.0,0.10454092433150368
6700.0,0.21780251551989
6704.0,0.3094109849041248
6708.0,0.41842796516686753
6712.0,0.5121484965294298
6716.0,0.6328387060185638
6720.0,0.7087695191340185
6724.0,0.828345562649735
6728.0,0.9206868289105858
6732.0,1.0198690171731615
6736.0,0.9200655478751815
6740.0,0.8084913132691488
6744.0,0.706313894580052
6748.0,0.6288609595547345
6752.0,0.523462076061508
6756.0,0.4148258206287625
6760.0,0.3123324900108143
6764.0,0.20428438108240746
6768.0,0.10188301439904081
6772.0,-0.015689306433657745
6776.0,-0.06810226549355793
6780.0,-0.13095690446943162
6784.0,-0.185147365702513
6788.0,-0.25166137222307816
6792.0,-0.296989830252225
6796.0,-0.2374246021235116
6800.0,-0.1804875517237788
6804.0,-0.11203221396161017
6808.0,-0.051351393266171025
6812.0,-0.04089785192214614
6816.0,-0.04396764811974456
6820.0,-0.04221550130632651
6824.0,-0.05049083751062141
6828.0,-0.03283437022129493
6832.0,-0.040731067092633175
6836.0,-0.01489109092842062
6840.0,-0.025900890902468623
6844.0,-0.03924346438814304
6848.0,-0.020801335022656665
6852.0,-0.005238584690451936
6856.0,-0.030867065199855628
6860.0,-0.02207479312664495
6864.0,-0.00676910591001109
6868.0,-0.012706619599159695
6872.0,-0.021709096738444705
6876.0,-0.024572262108939428
6880.0,0.007015785859358572
6884.0,-0.0007211074422384224
6888.0,-0.0006260307736908877
6892.0,0.0067182883301373265
6896.0,0.04934738625043844
6900.0,0.02051689002516848
6904.0,0.06159633598892027
6908.0,0.08756534255556249
6912.0,0.11326845278015824
6916.0,0.13748459240949445
6920.0,0.15352370057374543
6924.0,0.18485731975240038
6928.0,0.21079965001839346
6932.0,0.22810301043736558
6936.0,0.23334511609989977
6940.0,0.2423064469767095
6944.0,0.24120115659150265
6948.0,0.2736560477034579
6952.0,0.26272168426439735
6956.0,0.2866851350401491
6960.0,0.312776387647308
6964.0,0.3053563956818932
6968.0,0.31290415569045604
6972.0,0.30636849918465353
6976.0,0.3069044654671578
6980.0,0.29990016659462837
6984.0,0.3100293971748649
6988.0,0.27999929220396685
6992.0,0.2926547651030337
6996.0,0.25954707023039764
7000.0,0.27554397889516413
7004.0,0.2598363425825871
7008.0,0.23749146098447804
7012.0,0.2033915457216209
7016.0,0.21203794862129297
7020.0,0.1839471536916054
7024.0,0.14790485531480385
7028.0,0.15246153678938051
7032.0,0.131077527337343
7036.0,0.0888679496079456
7040.0,0.0852621606734685
7044.0,0.038588942441990015
7048.0,0.011015107812528497
7052.0,0.0068857560957339276
7056.0,0.0004272617187700339
7060.0,-0.002326991432387572
7064.0,-0.008366699271186901
7068.0,0.011424142406017346
7072.0,0.015439888127899903
7076.0,0.00148433220134002
7080.0,-0.004483540621250964
7084.0,-0.0025237214861117113
7088.0,-0.012900647692555483
7092.0,-0.00307363475017572
7096.0,0.01091090042725553
7100.0,-0.014707517229409913
7104.0,-0.0030965212533461107
7108.0,0.007293569414974448
7112.0,-0.02400061130562243
7116.0,-0.014019449904299104
7120.0,0.012759112356051353
7124.0,0.009200853239622563
7128.0,-0.003208782172912398
7132.0,-0.020621021021540797
7136.0,0.013827374288757367
7140.0,-0.005079499567640176
7144.0,-0.0019491605023743456
7148.0,0.01586466811275816
7152.0,-0.003927412689823781
7156.0,0.021983545073440868
7160.0,-0.02383365312552857
7164.0,0.0018878038115851662
7168.0,0.007675392035751234
7172.0,0.006977256838713565
7176.0,0.011407699900286415
7180.0,-0.012565284476634749
7184.0,0.006564431373544456
7188.0,-0.009384301061841335
7192.0,0.0007283210861455789
7196.0,-0.004302064151351335
7200.0,0.0033822983254533957
7204.0,0.0047891615755594604
7208.0,-0.013825182583824827
7212.0,-0.00824568667317666
7216.0,0.008507911614866753
7220.0,0.009639303868612788
7224.0,0.01820616975599529
7228.0,-0.0022610987456681882
7232.0,-0.00013611332870321223
7236.0,0.009955850968862832
7240.0,-0.016679622546095868
7244.0,0.008959618844858507
7248.0,0.008430928304556244
7252.0,-0.007448721727957554
7256.0,0.003912221461786704
7260.0,-0.012201743187908218
7264.0,0.0029137573451160632
7268.0,0.013087350852027495
7272.0,0.015591254776907289
7276.0,0.0008571398596391941
7280.0,-0.007417885610168405
7284.0,-0.006277109770143738
7288.0,-0.021447364950756033
7292.0,-0.005661572213186179
7296.0,0.0021679019778914088
7300.0,-0.023613939485007437
7304.0,0.0015452878547541514
7308.0,-0.01995497992646742
7312.0,0.01617407365697233
7316.0,0.010768325785587892
7320.0,-0.003571172182695319
7324.0,0.009611608173442355
7328.0,-0.003070113088369675
7332.0,-0.005115153943120897
7336.0,-6.0139400300083935e-05
7340.0,0.004639132067918409
7344.0,0.02320822367308998
7348.0,-0.004558725234258446
7352.0,-0.0029822635559889473
7356.0,0.0075954500116723845
7360.0,-0.028518157608784872
7364.0,-0.012028985615225965
7368.0,-0.01069496785537021
7372.0,0.012299313536225131
7376.0,0.0014127188339626414
7380.0,0.0031857293919401925
7384.0,-0.009424158111194842
7388.0,0.0009106669895163392
7392.0,0.029491294670019805
7396.0,0.08629799542179611
7400.0,0.11115060115129534
7404.0,0.11965400185095362
7408.0,0.16883336979815927
7412.0,0.17925161456860988
7416.0,0.20545227036924416
7420.0,0.2172912427368852
7424.0,0.24173125437641516
7428.0,0.25829236994581567
7432.0,0.262176949459711
7436.0,0.25331485725365904
7440.0,0.26964712104965227
7444.0,0.26224760897245286
7448.0,0.22628743660578174
7452.0,0.21692438275207301
7456.0,0.20972896775140834
7460.0,0.19382424562273928
7464.0,0.1844893404420843
7468.0,0.1533184780160663
7472.0,0.12092491522394022
7476.0,0.11921937833921013
7480.0,0.06228135178118235
7484.0,0.03261337463632728
7488.0,0.009748723811636523
7492.0,-0.010128906847331734
7496.0,-0.009321546403714161
7500.0,-0.010962484727248076
7504.0,0.00520112883085699
7508.0,0.005443645900563446
7512.0,-0.0004809066720051382
7516.0,0.010390037239539868
7520.0,-0.011287158002236227
7524.0,-0.0007040863000472115
7528.0,-0.0022726766621107364
7532.0,-0.06200915742565699
7536.0,-0.08425654829961085
7540.0,-0.10790931497373435
7544.0,-0.16511994874571806
7548.0,-0.001932822896165191
7552.0,0.10434296072766966
7556.0,0.23158418236107603
7560.0,0.3273447691591208
7564.0,0.3961820477997662
7568.0,0.5076756536368345
7572.0,0.6352633752046692
7576.0,0.7496934233526683
7580.0,0.8485050509552725
7584.0,0.9610323215187864
7588.0,1.0573759001948668
7592.0,0.9552491381244977
7596.0,0.8290760024605757
7600.0,0.7129293164938205
7604.0,0.6302216100968207
7608.0,0.5106270517148004
7612.0,0.41463404709341517
7616.0,0.33231144539028185
7620.0,0.2040809250676969
7624.0,0.12335677172905657
7628.0,0.00035596414769301733
7632.0,-0.04977156242441394
7636.0,-0.11650542565425934
7640.0,-0.20155351057240556
7644.0,-0.2448872694371703
7648.0,-0.32885869699732706
7652.0,-0.237571583722379
7656.0,-0.2020568221034895
7660.0,-0.11936067228383478
7664.0,-0.07508126325701119
7668.0,-0.05023684298314165
7672.0,-0.043602454620674296
7676.0,-0.05438427638318548
7680.0,-0.04822750672368457
7684.0,-0.05107121325404024
7688.0,-0.024845938653599936
7692.0,-0.032573714364779544
7696.0,-0.03224448082240554
7700.0,-0.026576382578334782
7704.0,-0.026186070047574176
7708.0,-0.013955385622707595
7712.0,-0.02195501333615977
7716.0,-0.03278384531270252
7720.0,-0.02468391645777221
7724.0,0.0007322598675924483
7728.0,-3.545811676877557e-05
7732.0,0.017400274465913294
7736.0,-0.0036646161588948824
7740.0,-0.009672696966797194
7744.0,-0.016510319097537012
7748.0,0.009151921632790785
7752.0,0.04391504137052882
7756.0,0.051228088097912
7760.0,0.08388227448699383
7764.0,0.10143814001837421
7768.0,0.11525094922470375
7772.0,0.13381554494632353
7776.0,0.153607319710828
7780.0,0.18986309614471877
7784.0,0.20718782963330853
7788.0,0.24245789816902935
7792.0,0.23229336977948317
7796.0,0.2438234077266831
7800.0,0.2757191466284937
7804.0,0.2810377090261116
7808.0,0.26971323496821803
7812.0,0.3017513614111178
7816.0,0.2829482790401588
7820.0,0.31237652490452206
7824.0,0.3141886545037047
7828.0,0.323588497882355
7832.0,0.3258951530167753
7836.0,0.32002770190491914
7840.0,0.30641184200230653
7844.0,0.3122841525892765
7848.0,0.2905257548454916
7852.0,0.278116041160033
7856.0,0.26761359526146744
7860.0,0.2604706743888002
7864.0,0.25985044078995717
7868.0,0.21562430880756955
7872.0,0.205769642483741
7876.0,0.17104437234463155
7880.0,0.1727575494833308
7884.0,0.14809927321048763
7888.0,0.13137215643801708
7892.0,0.09548171201855693
7896.0,0.07784259594640827
7900.0,0.05976735601892802
7904.0,0.03147555763125342
7908.0,-0.004061399531119601
7912.0,-0.021422267280194397
7916.0,-0.007569291051566662
7920.0,0.01954728097443454
7924.0,-0.008214884920294475
7928.0,-0.0030144071010128454
7932.0,0.007536876201724492
7936.0,0.01052562329984423
7940.0,-0.008413383144480282
7944.0,0.0012482041744234782
7948.0,-0.002453500242470715
7952.0,0.00577471499028814
7956.0,-0.000639279090594338
7960.0,0.00462026297260758
7964.0,0.006679901422890437
7968.0,0.005149334125607688
7972.0,-0.013103312172957904
7976.0,-0.0011072271797888545
7980.0,0.0040796806256787575
7984.0,-0.0059367330179463705
7988.0,-0.0048546286374428005
7992.0,-0.006227039460091828
7996.0,0.015871231785896743
8000.0,-0.0142753999310466
8004.0,0.018069826502822278
8008.0,0.001015703607074407
8012.0,-0.02627317689349421
8016.0,-0.012342029457468462
8020.0,0.0104444198900154
8024.0,-0.0039589306075939945
8028.0,-0.009188060093684943
8032.0,-0.0023239420429847467
8036.0,-0.0027564569275890607
8040.0,0.005419855818438192
8044.0,0.001544529435711402
8048.0,0.00843336449665205
8052.0,0.01338237500980075
8056.0,0.018595680669722357
8060.0,0.024362405498990842
8064.0,0.0009032900133949918
8068.0,-0.003447493644055284
8072.0,0.005269303291678863
8076.0,0.006373058968356809
8080.0,0.017738675084716705
8084.0,0.010916765205414989
8088.0,-0.0072644306768692365
8092.0,-0.0026582193949014742
8096.0,-0.001527713265132423
8100.0,0.006600521308637772
8104.0,0.0012011489226133984
8108.0,-0.0006377141290233476
8112.0,0.0007865081335058711
8116.0,-0.01331722957853982
8120.0,-0.0011165573930066177
8124.0,0.015373958395181917
8128.0,0.005383725652730339
8132.0,-0.006264580266828696
8136.0,0.010920033970205679
8140.0,0.010427955779819776
8144.0,-0.01624411312106542
8148.0,0.0042571450240985065
8152.0,-0.007089717894998963
8156.0,0.00169796869336106
8160.0,0.005033584385403138
8164.0,5.24849701841386e-05
8168.0,0.013911107294520272
8172.0,-6.726245221819882e-05
8176.0,0.0060533163475065075
8180.0,0.001769572881629079
8184.0,0.018761122396966704
8188.0,0.004823408418942585
8192.0,0.007380755082349901
8196.0,0.021174847774589473
8200.0,0.003664817085553486
8204.0,0.0018566856253346142
8208.0,-0.00025928082308113127
8212.0,0.002844851958665145
8216.0,0.0054097834470131865
8220.0,0.004433649144332332
8224.0,-0.002581983593569223
8228.0,-0.007242990783587385
8232.0,0.0004047863915288631
8236.0,-0.02088827955790264
8240.0,0.0023898198187075528
8244.0,0.001811808431709779
8248.0,0.039319753237270536
8252.0,0.07765642115255493
8256.0,0.09897705677566364
8260.0,0.12067417173731444
8264.0,0.15256770892340363
8268.0,0.17391207047466345
8272.0,0.1830320292003263
8276.0,0.21702823372755792
8280.0,0.2270481690258644
8284.0,0.2421792565112664
8288.0,0.22946494947333826
8292.0,0.24894426396825722
8296.0,0.24430329963812322
8300.0,0.25567318306986575
8304.0,0.23857808057102714
8308.0,0.23061851857235557
8312.0,0.22047308320920175
8316.0,0.18399166534815617
8320.0,0.1712943324832099
8324.0,0.14362918355079124
8328.0,0.10744708245244437
8332.0,0.08641708550817453
8336.0,0.07244234002580331
8340.0,0.046104636876297414
8344.0,0.01351147293479183
8348.0,-0.004535023631135784
8352.0,-0.008857204766533877
8356.0,0.006804980790691785
8360.0,-0.0022038530011889517
8364.0,0.013625477688560008
8368.0,0.02157700654140829
8372.0,0.005676530837045678
8376.0,-0.002134210971130422
8380.0,-0.003140893933096412
8384.0,-0.011453501711231145
8388.0,-0.042384051119731134
8392.0,-0.09600377755478785
8396.0,-0.10584443487933307
8400.0,-0.17555865898232081
8404.0,0.006813019607234128
8408.0,0.11273478069508122
8412.0,0.19203610307271707
8416.0,0.30422330209098064
8420.0,0.39406347838047384
8424.0,0.500546078081301
8428.0,0.58575917669018
8432.0,0.7120374369541441
8436.0,0.8129798974170621
8440.0,0.8975649538905727
8444.0,0.997751426054592
8448.0,0.900923715195161
8452.0,0.7850353170558213
8456.0,0.6980527103352663
8460.0,0.6038718431039966
8464.0,0.512937492552201
8468.0,0.4052742059877493
8472.0,0.31784229586482826
8476.0,0.20439402200562012
8480.0,0.0919835006149057
8484.0,0.012043620026335225
8488.0,-0.06582014389208744
8492.0,-0.12178140818720455
8496.0,-0.18420118056340648
8500.0,-0.22807009667965014
8504.0,-0.2904304417421222
8508.0,-0.2311768761020289
8512.0,-0.1897530710861913
8516.0,-0.11963937632275337
8520.0,-0.042511896541910114
8524.0,-0.050769419984350785
8528.0,-0.04049777639394503
8532.0,-0.03352949565747649
8536.0,-0.029828498647758984
8540.0,-0.02814279922919779
8544.0,-0.04679151275617939
8548.0,-0.03838312939846135
8552.0,-0.028755451728216384
8556.0,-0.032274907165077894
8560.0,-0.016527188785677122
8564.0,-0.029785763180209014
8568.0,-0.01993907227860446
8572.0,-0.027355102016165984
8576.0,-0.03177145243317514
8580.0,-0.013603204086166583
8584.0,-0.01999251429261756
8588.0,-0.00992110761314813
8592.0,-0.002072460499661288
8596.0,0.009648399329262128
8600.0,-0.0018003201723242254
8604.0,-0.005180750333301283
8608.0,0.01746989806473965
8612.0,0.024006324112120805
8616.0,0.07057703177995034
8620.0,0.10720748818479281
8624.0,0.11885287288386924
8628.0,0.14456188663814673
8632.0,0.15888675886109485
8636.0,0.18044887196132406
8640.0,0.1975483105181525
8644.0,0.22129232977979285
8648.0,0.21973514757596696
8652.0,0.24391302847983334
8656.0,0.2626253988966407
8660.0,0.26334133690881406
8664.0,0.2830502261230572
8668.0,0.27841247801408164
8672.0,0.2905235366046816
8676.0,0.30422038960421116
8680.0,0.29146888150558126
8684.0,0.2875894639824427
8688.0,0.30637496773715195
8692.0,0.27860741894386065
8696.0,0.30561758884517765
8700.0,0.2883414245781608
8704.0,0.27506835377617517
8708.0,0.2754505648945239
8712.0,0.26051658898072666
8716.0,0.2527109518917979
8720.0,0.23664784248348084
8724.0,0.2094543091395949
8728.0,0.1896135263182156
8732.0,0.18217444622579368
8736.0,0.15445243793657698
8740.0,0.14360368784892114
8744.0,0.1013600908317554
8748.0,0.10662530350419296
8752.0,0.05647997385199681
8756.0,0.04019796115759467
8760.0,0.025332202125869948
8764.0,0.00337628842502753
8768.0,-0.0009241819801851263
8772.0,0.016636402028663917
8776.0,0.009075135788396518
8780.0,-0.002530146252180575
8784.0,-0.008908876191598759
8788.0,0.008688824899776335
8792.0,0.000614305065480175
8796.0,0.0012576015734944107
8800.0,-0.010022532730670875
8804.0,-0.0031060468710899652
8808.0,-0.004959298564665063
8812.0,0.0019119743909395287
8816.0,-0.013192588146064705
8820.0,-0.004649565988521777
8824.0,-0.0031510675058266826
8828.0,0.0017112819303974854
8832.0,-0.01810151865833029
8836.0,-0.0014489378747094255
8840.0,0.0034367677075256746
8844.0,-0.0067681544383329665
8848.0,0.005700717062895209
8852.0,0.012013011223492137
8856.0,0.007048127215378654
8860.0,0.020209546519364404
8864.0,-0.00275901120471042
8868.0,-0.002067153691114674
8872.0,0.004225000216079773
8876.0,0.007264196392411146
8880.0,-0.00883809951239713
8884.0,0.01357290339740184
8888.0,0.017342043943211996
8892.0,0.007090094102460134
8896.0,-0.0009776496355827415
8900.0,-0.0020524131381997536
8904.0,-0.0003450828656255784
8908.0,0.015160350297072618
8912.0,0.0010447730309921656
8916.0,0.00032003916339179596
8920.0,0.003364100095373173
8924.0,-0.005400479726029702
8928.0,-0.005629951826562022
8932.0,0.003843549174407668
8936.0,-0.0032621753254300206
8940.0,0.003233637727506553
8944.0,0.0009302905027885748
8948.0,-0.01048206856974466
8952.0,0.004808810172718202
8956.0,-0.00583824299496125
8960.0,-0.013770332987711156
8964.0,-0.008068295998289624
8968.0,0.002980426817288077
8972.0,-0.0020343433849479846
8976.0,-0.002782180402902589
8980.0,0.00017325707078940674
8984.0,-0.012644267717839837
8988.0,0.014677659198964008
8992.0,-0.005530282457412598
8996.0,-0.006693225747422695
9000.0,0.007377649008566922
9004.0,0.003586254620308258
9008.0,0.00015200148183944662
9012.0,0.01133068078503301
9016.0,0.000741232023597011
9020.0,-0.004063135156316615
9024.0,0.011118486791054056
9028.0,-0.000801010260019989
9032.0,0.007945997811889472
9036.0,-0.032433397220719175
9040.0,0.002620787628916063
9044.0,0.010215802525755406
9048.0,0.007379645655189222
9052.0,-0.004520861408174173
9056.0,-0.010929446397241496
9060.0,-0.0017720998493058367
9064.0,0.02524233196156418
9068.0,-0.005245734977990403
9072.0,0.0013814952988647569
9076.0,-0.0056058502416432825
9080.0,-0.004052384319101559
9084.0,-0.008985816370177306
9088.0,0.010751476203608517
9092.0,-0.004151051395553025
9096.0,-0.0017320900455681913
9100.0,0.0009583202127016531
9104.0,0.029912185766080433
9108.0,0.0630166957581151
9112.0,0.099304345601807
9116.0,0.11996857325370264
9120.0,0.13620210162133384
9124.0,0.17426335015894795
9128.0,0.20358207523861493
9132.0,0.19719672173176625
9136.0,0.22369700155544472
9140.0,0.240413310352235
9144.0,0.2660146355414553
9148.0,0.2508079916028857
9152.0,0.245298987753441
9156.0,0.2462395482012648
9160.0,0.24199657245551676
9164.0,0.2337846791289373
9168.0,0.22687269583476857
9172.0,0.19164183495589684
9176.0,0.17857880360936287
9180.0,0.1536350536262856
9184.0,0.13554385634324892
9188.0,0.10764811780358864
9192.0,0.04952771728885289
9196.0,0.03686239830414784
9200.0,0.008425339197851276
9204.0,-0.01421208161822272
9208.0,-0.009192273479724665
9212.0,0.0023423258756785207
9216.0,0.009645735459299984
9220.0,0.0016154701871383438
9224.0,0.002959829057892184
9228.0,0.006403601521137328
9232.0,-0.017372930579709147
9236.0,0.01120678521412476
9240.0,0.003583897784501438
9244.0,-0.026349606129248172
9248.0,-0.08426676669224101
9252.0,-0.1197097933555043
9256.0,-0.16969632134469478
9260.0,-0.0031480997788543874
9264.0,0.09356576697410328
9268.0,0.1936653903860324
9272.0,0.31025207642162067
9276.0,0.3973249397772174
9280.0,0.5181627641886948
9284.0,0.5997661170334125
9288.0,0.6989410679701995
9292.0,0.8385998885182727
9296.0,0.9100682385855222
9300.0,1.0168831733090173
9304.0,0.901818447519009
9308.0,0.8205730041563298
9312.0,0.6988556124972614
9316.0,0.5806704819266691
9320.0,0.5248304691542836
9324.0,0.3986269714440262
9328.0,0.325488040261551
9332.0,0.2148968775336241
9336.0,0.10532289543052627
9340.0,0.007940437546712012
9344.0,-0.0627507373696083
9348.0,-0.11356560518561362
9352.0,-0.17197148035477608
9356.0,-0.2339689908420988
9360.0,-0.30113620516660927
9364.0,-0.22402038095911073
9368.0,-0.18480295994794743
9372.0,-0.12219184902534375
9376.0,-0.055967084491276055
9380.0,-0.07297574595621818
9384.0,-0.039016201311119436
9388.0,-0.054548480967178015
9392.0,-0.03470274478992105
9396.0,-0.05153455941849551
9400.0,-0.03963139642995188
9404.0,-0.01782433540470919
9408.0,-0.022788435866096992
9412.0,-0.022396438853574275
9416.0,-0.03684634020288338
9420.0,-0.02512600612900528
9424.0,-0.020319374160894577
9428.0,-0.015924872103628033
9432.0,-0.01719045702607618
9436.0,-0.01791419752255865
9440.0,-0.013350050591560105
9444.0,-0.005989452848705128
9448.0,-0.026196075806611915
9452.0,-0.007520904865327372
9456.0,-0.012972532667445826
9460.0,-0.005801997687271815
9464.0,0.01944485780276762
9468.0,0.05207593237767521
9472.0,0.06550844557319882
9476.0,0.09298046062658628
9480.0,0.1274359536207092
9484.0,0.12557677219782887
9488.0,0.15648677725284207
9492.0,0.16979708711428118
9496.0,0.20698749167934735
9500.0,0.21895337471065437
9504.0,0.20417116431160687
9508.0,0.2330327019215862
9512.0,0.27895231444290736
9516.0,0.27033506910368277
9520.0,0.2923859513971276
9524.0,0.27270548845823317
9528.0,0.29009721701226154
9532.0,0.31174207420080746
9536.0,0.3017844037788085
9540.0,0.3316722716557423
9544.0,0.31678039047792433
9548.0,0.2991729969258257
9552.0,0.2935995422142651
9556.0,0.3063352321578089
9560.0,0.2925627924908005
9564.0,0.2834778145508686
9568.0,0.2683924609867912
9572.0,0.25399016773088495
9576.0,0.2531967787225477
9580.0,0.22084948399684054
9584.0,0.19190656985272958
9588.0,0.18460601455855075
9592.0,0.16056149504821624
9596.0,0.14111596297371826
9600.0,0.13076749321256337
9604.0,0.09826190375430181
9608.0,0.07663437841232268
9612.0,0.0503576811273749
9616.0,0.023961706926112297
9620.0,0.0022538889759804678
9624.0,-0.00258381899418834
9628.0,0.0063454297894542586
9632.0,0.011477582465405705
9636.0,-0.0124104043754003
9640.0,0.0018677629757546349
9644.0,-0.005419367080416474
9648.0,-0.01613165348806241
9652.0,-0.015436776753152122
9656.0,-0.006184690135003032
9660.0,0.005903816004275786
9664.0,-0.004872330123760591
9668.0,0.0021926269205233394
9672.0,-0.005147499494306564
9676.0,-0.004751107724461775
9680.0,-0.0026257910636859855
9684.0,0.00483692507875826
9688.0,0.0041790725692269345
9692.0,0.0052646459118941644
9696.0,-0.003923457582505381
9700.0,0.006271835824124894
9704.0,0.00011973275681777052
9708.0,-0.00698551686922013
9712.0,0.0012355938073997069
9716.0,-0.006057297981066823
9720.0,0.008053433158173206
9724.0,-0.02570149504829317
9728.0,0.004781472488964863
9732.0,0.0016834487445190627
9736.0,-0.003936956425848511
9740.0,0.007607900868459595
9744.0,0.007167083092544339
9748.0,-0.006699437072121625
9752.0,-0.002616274779139072
9756.0,-0.00588572716815031
9760.0,0.008882289442828048
9764.0,-0.020108408936770718
9768.0,0.0045258507642162715
9772.0,-0.010197330040468647
9776.0,0.010993401555733586
9780.0,0.015639715952363263
9784.0,-0.0017949787695441077
9788.0,-0.018704537922635895
9792.0,0.01807346754135068
9796.0,-0.008195025697853228
9800.0,-0.006932405874811662
9804.0,0.00036612650333583507
9808.0,0.0001267000945522009
9812.0,0.008447809029717797
9816.0,0.0010133053203071208
9820.0,0.006637069074530624
9824.0,0.005357101774138225
9828.0,-0.011305340835478904
9832.0,-0.0008153361029158947
9836.0,-0.011624957666774351
9840.0,0.00022729197432592744
9844.0,-0.010886272201051131
9848.0,0.0033497364101311503
9852.0,-0.0073740659263018425
9856.0,0.016005160308605906
9860.0,-0.000854337796344034
9864.0,-0.0028605731630406447
9868.0,0.005868364959140753
9872.0,-0.010848683492876958
9876.0,0.012552962746790738
9880.0,0.006286330803285499
9884.0,0.0010795100724796001
9888.0,0.001786808040150545
9892.0,0.012494048164631103
9896.0,0.016361714775518336
9900.0,0.003532755750338239
9904.0,0.008508313396581358
9908.0,0.018921945474601385
9912.0,0.0051664741466701915
9916.0,0.0017207909006871592
9920.0,0.003284306228640617
9924.0,-0.012259718670654791
9928.0,-0.0013252967086950338
9932.0,0.011269319882357022
9936.0,0.027325360592734306
9940.0,0.006894672613452342
9944.0,0.0038126015326306125
9948.0,0.0012471641568500193
9952.0,-0.0017607152207687442
9956.0,-0.00912286580754722
9960.0,0.025735890792767967
9964.0,0.0457814033151755
9968.0,0.09169928197196354
9972.0,0.10691459308976667
9976.0,0.13971372529776832
9980.0,0.15717127110319923
9984.0,0.19545293590125007
9988.0,0.1983948610551803
9992.0,0.22255521361127917
9996.0,0.22718677111983604
10000.0,0.2284560012419948
10004.0,0.23264412093671602
10008.0,0.25831372237364636
10012.0,0.24778559521787602
10016.0,0.2446870909249991
10020.0,0.21839369555412522
10024.0,0.19649627776931983
10028.0,0.16925018162766675
10032.0,0.17117206746267608
10036.0,0.14752123813312706
10040.0,0.11909488189265946
10044.0,0.08683132013982521
10048.0,0.06346296200061922
10052.0,0.044293244236742996
10056.0,-0.0038265095876056595
10060.0,-0.005387332058940255
10064.0,0.008398359233163023
10068.0,0.004645049828268645
10072.0,-0.03928861540678545
10076.0,0.009419519830514915
10080.0,1.9334640750263508e-05
10084.0,0.00739231959300863
10088.0,-0.00785145424671765
10092.0,0.011538211979914559
10096.0,-0.006791987812574451
10100.0,-0.03998434235967105
10104.0,-0.05861372055778481
10108.0,-0.12161774565035753
10112.0,-0.1574415999779872
10116.0,-0.007455010586521665
10120.0,0.11399636487466581
10124.0,0.20013919037405162
10128.0,0.29292506569667404
10132.0,0.38861086670294265
10136.0,0.48656137950822564
10140.0,0.6019871432195186
10144.0,0.677751507258386
10148.0,0.7679937584912251
10152.0,0.8766287433884092
10156.0,0.9699875631715147
10160.0,0.8673120213928524
10164.0,0.7924861069623225
10168.0,0.6683132379327441
10172.0,0.5678524343995924
10176.0,0.4827787752095729
10180.0,0.3708255304296225
10184.0,0.29042443872130463
10188.0,0.19527838265933933
10192.0,0.09766263939217376
10196.0,-0.013772847674490073
10200.0,-0.03440989080372775
10204.0,-0.11815033387731344
10208.0,-0.1701640439134361
10212.0,-0.2423448613944801
10216.0,-0.30916216077661984
10220.0,-0.2371137462859139
10224.0,-0.17029538680222273
10228.0,-0.10058453027906683
10232.0,-0.0677697952456241
10236.0,-0.039259502444661636
10240.0,-0.058407191815478626
10244.0,-0.030744875605293098
10248.0,-0.04022795266899324
10252.0,-0.031208780274398266
10256.0,-0.0476778855954526
10260.0,-0.015396429243897392
10264.0,-0.014173880834834403
10268.0,-0.0210386404778439
10272.0,-0.028669988280065672
10276.0,-0.03048766460183224
10280.0,-0.02711041213068908
10284.0,-0.021968325008743315
10288.0,-0.01963914658739247
10292.0,-0.007068115472614556
10296.0,-0.020107121492203228
10300.0,0.0024914743798923125
10304.0,-0.0002684172988486567
10308.0,-0.00023331327619130655
10312.0,-0.005761358811143653
10316.0,0.0016844804242642827
10320.0,0.03359201820649257
10324.0,0.037966466142110945
10328.0,0.06905503314247932
10332.0,0.08253515336359726
10336.0,0.11454112300145343
10340.0,0.13742939008844934
10344.0,0.14144346250241807
10348.0,0.17581606433314656
10352.0,0.19444065547430647
10356.0,0.20707311504210732
10360.0,0.20976330151465855
10364.0,0.22331751076758924
10368.0,0.24313611640023436
10372.0,0.27125294790673093
10376.0,0.2619735682893722
10380.0,0.27855745159752
10384.0,0.2872928270458474
10388.0,0.288858261783278
10392.0,0.28725346682340025
10396.0,0.3014869129424639
10400.0,0.3066205057372932
10404.0,0.298121805361447
10408.0,0.2841983868964985
10412.0,0.2695032056492369
10416.0,0.2666655382767789
10420.0,0.2673671471759002
10424.0,0.24449460142610777
10428.0,0.24523022415215395
10432.0,0.21751979949433262
10436.0,0.2053929235456993
10440.0,0.17542407461833237
10444.0,0.17758139296557457
10448.0,0.14656908118945342
10452.0,0.13259912198266433
10456.0,0.11564178758914495
10460.0,0.08706501979720364
10464.0,0.06745926892406036
10468.0,0.039656439493685886
10472.0,0.039377328342165924
10476.0,-0.011556374701658488
10480.0,-0.013715046482552926
10484.0,0.008153092965443889
10488.0,-0.002089165970367749
10492.0,-0.008211547761175431
10496.0,-0.010343566288893012
10500.0,0.002482797926799691
10504.0,-0.011251741925993543
10508.0,0.009424179366980074
10512.0,-0.018179187391187665
10516.0,-0.01395963342129427
10520.0,0.013936160933781203
10524.0,0.023036805492638847
10528.0,-0.004147773658749751
10532.0,0.014864693630835884
10536.0,0.014101777624186025
10540.0,0.012801160643873636
10544.0,0.006573031490693453
10548.0,0.004932001534389136
10552.0,-0.007545939196711738
10556.0,0.02124185896926549
10560.0,-0.0021739864306273907
10564.0,0.009643021310333592
10568.0,-0.00031726224967556306
10572.0,0.0019381370395221093
10576.0,-0.0032404212579540954
10580.0,-0.0038315045391498414
10584.0,-0.002402910905450224
10588.0,0.004830555178819981
10592.0,-0.002303311628889445
10596.0,-0.01555465277023748
10600.0,0.004265533930367474
10604.0,-0.0069189778882872335
10608.0,-0.009287566348019756
10612.0,-0.0018616378870956042
10616.0,0.004563260579887202
10620.0,-0.0008159867796703374
10624.0,-0.002574667251309309
10628.0,0.0032826423191181704
10632.0,-0.0011868617398828293
10636.0,0.013450254741849193
10640.0,-0.017960114290344317
10644.0,-0.019142788657047216
10648.0,-0.0019629228744347813
10652.0,0.008542903570145042
10656.0,-0.005817726243037147
10660.0,0.006613111946835121
10664.0,-0.011509409934261866
10668.0,0.006698126161203411
10672.0,0.009218751899157582
10676.0,-0.010514923662423622
10680.0,0.017021739847012836
10684.0,-0.0121187816067011
10688.0,-0.0058245865928434224
10692.0,-0.009805766658784928
10696.0,0.008112798904273924
10700.0,0.010363984101427914
10704.0,-0.0017797886389821025
10708.0,-0.009182438306675577
10712.0,-0.017185753029851186
10716.0,0.00764427183098007
10720.0,-0.013077603679521013
10724.0,0.0002108387138843203
10728.0,-0.000432462725129876
10732.0,0.00032810768069665443
10736.0,-0.006324522617344262
10740.0,0.010390417146070103
10744.0,-0.01410160525016665
10748.0,0.012675952483527455
10752.0,-0.0015384872390667398
10756.0,-0.003360307433757778
10760.0,-0.006096280382260511
10764.0,-0.0007727120554272095
10768.0,0.00837123164972601
10772.0,-0.001874531864989278
10776.0,-0.0014041297222455397
10780.0,0.014024805691311681
10784.0,-0.017982407425410615
10788.0,-0.005656488416034436
10792.0,-0.00017128959494224063
10796.0,-0.005771199713611875
10800.0,-0.005706061541119863
10804.0,-0.00010797474843794185
10808.0,0.01046240277424512
10812.0,-0.011817640265797019
10816.0,0.03372327662225054
10820.0,0.059242448598591756
10824.0,0.10962338695543015
10828.0,0.13217812633333276
10832.0,0.146512073306644
10836.0,0.160868919815844
10840.0,0.2013308837662011
10844.0,0.22251804998965272
10848.0,0.23779435250689895
10852.0,0.2515759921476058
10856.0,0.24816704141633994
10860.0,0.27587722336451415
10864.0,0.24926281669737
10868.0,0.25769247745832974
10872.0,0.2509092446142601
10876.0,0.24220018440316052
10880.0,0.21823989475840688
10884.0,0.1867343244610507
10888.0,0.177020420528
10892.0,0.15563104061560717
10896.0,0.12003051961702932
10900.0,0.10256617262280847
10904.0,0.05492828061520582
10908.0,0.043837637998959136
10912.0,0.0021706322675375473
10916.0,0.019322980211611517
10920.0,0.00675118147556164
10924.0,0.00861211877258515
10928.0,0.013157283882821356
10932.0,-0.011397183458307076
10936.0,0.01298079766061513
10940.0,-0.014760697628101026
10944.0,0.012974537480064394
10948.0,-0.007299476114035771
10952.0,-0.004661152187282488
10956.0,-0.0439497200145765
10960.0,-0.07892227464388454
10964.0,-0.12342499521229101
10968.0,-0.1647860224954604
10972.0,-0.015659673069296807
10976.0,0.08389642236950627
10980.0,0.19694402269613503
10984.0,0.31223874570015187
10988.0,0.42242641697881034
10992.0,0.5114169244623883
10996.0,0.6365157715766271
11000.0,0.719607927256351
11004.0,0.8158846319952604
11008.0,0.9111975721565264
11012.0,1.0209415884730213
11016.0,0.9173390097167149
11020.0,0.8145248242246683
11024.0,0.7088119938415409
11028.0,0.6144043474583383
11032.0,0.528079792443327
11036.0,0.4034532146397645
11040.0,0.3157726519025918
11044.0,0.2089256091780945
11048.0,0.09848743874284137
11052.0,0.0057256705495939255
11056.0,-0.06688190718629088
11060.0,-0.12320141229413827
11064.0,-0.178751801512556
11068.0,-0.24952171352321512
11072.0,-0.2993815772627273
11076.0,-0.2410130687162314
11080.0,-0.17498897573087913
11084.0,-0.11622532583753446
11088.0,-0.07769774774901672
11092.0,-0.04780703007036487
11096.0,-0.058633154350947514
11100.0,-0.047138229499565545
11104.0,-0.056143329014793526
11108.0,-0.017176895615913974
11112.0,-0.051683506912752995
11116.0,-0.044301066499149756
11120.0,-0.021311872037709727
11124.0,-0.020355797073826315
11128.0,-0.018698007410212214
11132.0,-0.020208793212848845
11136.0,-0.03315392235931344
11140.0,-0.014978988472062617
11144.0,-0.005064774322574116
11148.0,-0.003346715674619997
11152.0,-0.006682697944654581
11156.0,-0.00840905270375942
11160.0,-0.005937856598761249
11164.0,-0.003055879696705706
11168.0,-0.016780153377053547
11172.0,0.014926720675033561
11176.0,0.03906768871801319
11180.0,0.04591967035287326
11184.0,0.07149569517607017
11188.0,0.09648270979055154
11192.0,0.11471473558503525
11196.0,0.13942041281915643
11200.0,0.16675089305424623
11204.0,0.17175045957506144
11208.0,0.19233555035002883
11212.0,0.23041864810849752
11216.0,0.22840523432151089
11220.0,0.2425312997781094
11224.0,0.25179216995753817
11228.0,0.2746536132229108
11232.0,0.29682160627519205
11236.0,0.28689883100064134
11240.0,0.31098502171243625
11244.0,0.301220714010279
11248.0,0.3018214473191138
11252.0,0.312928910285125
11256.0,0.32079940725594325
11260.0,0.3220036103148992
11264.0,0.29987012427099796
11268.0,0.2975567304030593
11272.0,0.29982097607828656
11276.0,0.2689538223460463
11280.0,0.2652324295543955
11284.0,0.24207787179189888
11288.0,0.22827606805959746
11292.0,0.21439580315333473
11296.0,0.2006833453625585
11300.0,0.1729394807487566
11304.0,0.15798692817713314
11308.0,0.13119447998422878
11312.0,0.11689931645938868
11316.0,0.10364499669307903
11320.0,0.07205377689547766
11324.0,0.049018721340129856
11328.0,0.02691615251942213
11332.0,-0.018121846168019425
11336.0,0.0014069478688265766
11340.0,-0.01349624633032317
11344.0,0.007558568232914599
11348.0,-0.0026908029710764696
11352.0,-0.006802890430004501
11356.0,-0.004811758194289685
11360.0,0.00011508012358627712
11364.0,0.001959277076562299
11368.0,0.015875798883464604
11372.0,0.005294666772762809
11376.0,0.014728684717695093
11380.0,0.01491883596796417
11384.0,0.0031827014365971057
11388.0,-0.006154857210624721
11392.0,-0.007146251763649862
11396.0,0.010237137157239588
11400.0,0.017719363247611798
11404.0,-0.0005214840923252848
11408.0,0.00615468461947463
11412.0,0.0007553152323075842
11416.0,-0.008308263495715406
11420.0,-0.017279142889311674
11424.0,-0.018781488749674807
11428.0,0.0035916767815254054
11432.0,-0.0028947991351415464
11436.0,0.0010208457035150002
11440.0,-0.00992777236532844
11444.0,0.005677736557848942
11448.0,-0.00704192145131749
11452.0,0.01042964852606678
11456.0,-0.0024013593836005043
11460.0,0.00041941333070952307
11464.0,-0.005811055105393033
11468.0,0.010194065468617687
11472.0,0.004260079836569116
11476.0,-0.009338034344770084
11480.0,-0.004092124557989293
11484.0,-0.008426157361540213
11488.0,-0.010666198310690074
11492.0,-0.002735063762283847
11496.0,-0.009907655242049021
11500.0,-0.003599822304003005
11504.0,-0.002267521170241324
11508.0,-0.004291563618815266
11512.0,0.018439720005183756
11516.0,-0.011014898114043374
11520.0,-0.0008863831895129097
11524.0,-0.01717180042727979
11528.0,-0.0012489331681120718
11532.0,0.006423856874859115
11536.0,-0.009344426630438328
11540.0,0.015261680039494605
11544.0,-0.0089860491125594
11548.0,0.0205385999777735
11552.0,0.004578186039606561
11556.0,0.004737222080266576
11560.0,-2.3540605300770286e-05
11564.0,0.0015457912655322482
11568.0,0.0014095769437694966
11572.0,-0.007443395387437296
11576.0,-0.004645469236707333
11580.0,0.010464019658077509
11584.0,0.0048665173569320055
11588.0,-0.011790522296494866
11592.0,-0.0010851967240472933
11596.0,-0.0012631608302261159
11600.0,7.3799704517587155e-06
11604.0,0.0008037648037006834
11608.0,-0.004927043073321528
11612.0,-0.0009948777459506785
11616.0,0.0002009111939807938
11620.0,0.0022025396669194605
11624.0,0.004532751542959679
11628.0,0.0003249148767890551
11632.0,-0.001982092869599927
11636.0,-0.002894931316517393
11640.0,0.0018077794587748372
11644.0,-0.004475141148879016
11648.0,-0.020946834580986833
11652.0,0.004187026202616106
11656.0,-0.008256704307704874
11660.0,-0.005706497175444577
11664.0,0.004677758298366831
11668.0,-0.010541237041402687
11672.0,0.02317773253507731
11676.0,0.0675509536708705
11680.0,0.08401041888104159
11684.0,0.12989431977132646
11688.0,0.13613419158009948
11692.0,0.1814983605114768
11696.0,0.19148893850424553
11700.0,0.2079131194154438
11704.0,0.21688379325482027
11708.0,0.2292332829185819
11712.0,0.2526995277985443
11716.0,0.2650220897972531
11720.0,0.2581320963392053
11724.0,0.24938043731923823
11728.0,0.23748714743150368
11732.0,0.22706307890978975
11736.0,0.19922637887889635
11740.0,0.19838620345355948
11744.0,0.1632578593192665
11748.0,0.14229268335588482
11752.0,0.11922493077719301
11756.0,0.09691045139885429
11760.0,0.05645401545472178
11764.0,0.0354064794152044
11768.0,0.007250009330194115
11772.0,-0.013024765747708965
11776.0,-0.005697880618230114
11780.0,0.004545990120211343
11784.0,-0.00684124602617368
11788.0,-0.019111139114219876
11792.0,-0.01337129590423884
11796.0,0.01916667339098762
11800.0,0.0036492086272784754
11804.0,0.011715557886438185
11808.0,0.0034965068470053985
11812.0,-0.04886511458299393
11816.0,-0.07886388429607957
11820.0,-0.12694133178060646
11824.0,-0.1573320765720066
11828.0,0.004604327379961404
11832.0,0.11719460549534494
11836.0,0.19638507336512434
11840.0,0.31874376909999097
11844.0,0.40596072965759283
11848.0,0.5016215052826254
11852.0,0.6045414453771795
11856.0,0.6892827696421071
11860.0,0.8262635541614217
11864.0,0.8950714604694407
11868.0,1.0118203339723864
11872.0,0.9219644751520659
11876.0,0.8038447084022602
11880.0,0.6952890621362002
11884.0,0.5976968360861707
11888.0,0.5100279011575984
11892.0,0.40694163543834194
11896.0,0.30144959757366757
11900.0,0.20766694271006064
11904.0,0.09468295635041112
11908.0,0.003539490247081327
11912.0,-0.07020292242366757
11916.0,-0.1155849111630695
11920.0,-0.19453003239568237
11924.0,-0.24128112431539153
11928.0,-0.299628690039383
11932.0,-0.24410429547716792
11936.0,-0.1888107327437873
11940.0,-0.10319300041227114
11944.0,-0.07557356678435406
11948.0,-0.0531637734916217
11952.0,-0.05320497234765565
11956.0,-0.04377716221828543
11960.0,-0.03582368213674979
11964.0,-0.047314350852805734
11968.0,-0.0409355143501814
11972.0,-0.04563932964668496
11976.0,-0.0469645907950957
11980.0,-0.03590946978674789
11984.0,-0.04175046217686166
11988.0,-0.011932048201451752
11992.0,-0.02798987697296971
11996.0,-0.009673120350000144
12000.0,-0.03086651639000529
12004.0,-0.027246466126669554
12008.0,-0.014514385826582588
12012.0,-0.0024756762020802393
12016.0,0.006078399386050441
12020.0,-0.026086629642082793
12024.0,0.002629448212056723
12028.0,-0.00357479427569074
12032.0,0.035379910465503844
12036.0,0.03964865077992546
12040.0,0.050166740505170115
12044.0,0.09803812098789806
12048.0,0.09227845103529189
12052.0,0.1356299080052921
12056.0,0.17152114696689516
12060.0,0.18115792987062115
12064.0,0.19250661279321643
12068.0,0.20590462809573884
12072.0,0.24763800514604487
12076.0,0.24284685236070877
12080.0,0.2543612595742677
12084.0,0.27238677566940334
12088.0,0.26774356525873466
12092.0,0.29353975326766113
12096.0,0.2864879416842856
12100.0,0.2933804389232906
12104.0,0.31148086732352726
12108.0,0.31066203561664635
12112.0,0.29725721666721683
12116.0,0.29144685761473177
12120.0,0.2887504960340167
12124.0,0.29164639809884
12128.0,0.27425852296540576
12132.0,0.2691614724986904
12136.0,0.26130599470842986
12140.0,0.23987466365951868
12144.0,0.23483780083546069
12148.0,0.20738765013539004
12152.0,0.2017639522047024
12156.0,0.17916213092580413
12160.0,0.14576960072517897
12164.0,0.1431560952094937
12168.0,0.11861463102832948
12172.0,0.1086578021959344
12176.0,0.06111150681949519
12180.0,0.05384732920455845
12184.0,0.03633445707259132
12188.0,-0.007011475029132337
12192.0,0.0045677694086939035
12196.0,-0.0074642924472857275
12200.0,-0.0034137887433303873
12204.0,-0.007762857585456064
12208.0,0.006188158936294668
12212.0,-0.015757617032121012
12216.0,-0.0021008322810859513
12220.0,0.010589086614302322
12224.0,0.004444130026808786
12228.0,0.003190098376789967
12232.0,-0.006509148954451426
12236.0,-0.001413268356476848
12240.0,-0.006435848688310201
12244.0,0.006726235201247564
12248.0,0.003754373673868564
12252.0,-0.006292821205717406
12256.0,-0.00847335771097066
12260.0,0.0030092013935308195
12264.0,0.006949886301988776
12268.0,0.00931052837313059
12272.0,-0.00858878903360074
12276.0,-0.012919521608837239
12280.0,0.00903798146546871
12284.0,0.0013996347815022534
12288.0,-0.007641558168138583
12292.0,-0.012647363875386348
12296.0,0.016984060637701495
12300.0,0.00880454261828328
12304.0,-0.0032592588973062936
12308.0,0.009486769138327687
12312.0,0.025716650620777434
12316.0,0.010334118168981686
12320.0,-0.010810740266628916
12324.0,0.001761462018242695
12328.0,0.004093669645625042
12332.0,0.007118259950283082
12336.0,-0.018960879032499555
12340.0,-0.00902816748744607
12344.0,0.009295466255416353
12348.0,0.0019448819155352107
12352.0,-0.003847172883471609
12356.0,0.0025432535425107417
12360.0,0.0006001317557043597
12364.0,0.013727550109916633
12368.0,0.016165764099075944
12372.0,-0.0014839929552270675
12376.0,-0.004112736925048647
12380.0,0.0019335640624340625
12384.0,-0.0023361424701775456
12388.0,0.005422241395655764
12392.0,0.009105261986710892
12396.0,0.0007203431991291202
12400.0,0.010092053251218506
12404.0,-0.014592356073696966
12408.0,-0.020547637574904517
12412.0,-0.021711507572060966
12416.0,0.004127103603974057
12420.0,-0.007604984225136298
12424.0,-0.010605069671108034
12428.0,-0.0015361881017288005
12432.0,0.0066825030809363655
12436.0,-0.00021719635874153088
12440.0,-0.006416463339436228
12444.0,0.0033159939565440746
12448.0,-0.023400008724017485
12452.0,-0.0051857463720125785
12456.0,-0.019996487878136068
12460.0,0.00760402350137873
12464.0,-0.016688867843380847
12468.0,0.010830503035876076
12472.0,0.0180064448900601
12476.0,0.007536526788289842
12480.0,0.004575068846898977
12484.0,0.01096209931534591
12488.0,0.00751489463684314
12492.0,0.008940153614815313
12496.0,-0.013458531843148148
12500.0,-0.006350599894748114
12504.0,0.015819570103147516
12508.0,0.005886829158905135
12512.0,-0.0053242083950154825
12516.0,0.008209490610933482
12520.0,-0.0038497239316518835
12524.0,-0.008380840150815463
12528.0,0.019234329922344764
12532.0,0.058368797379094665
12536.0,0.08219870081479634
12540.0,0.12039320153821363
12544.0,0.15473386488191002
12548.0,0.1696508228945829
12552.0,0.19313569312005158
12556.0,0.20414720135534475
12560.0,0.22702985445080348
12564.0,0.24506339705165509
12568.0,0.2598286801014579
12572.0,0.2450254492798222
12576.0,0.2588437288378451
12580.0,0.2565071531472136
12584.0,0.25104677488324006
12588.0,0.23181427200781057
12592.0,0.21427688768517378
12596.0,0.20248178645511494
12600.0,0.16527023924973475
12604.0,0.1668425916091083
12608.0,0.12797004644129445
12612.0,0.08937609590584933
12616.0,0.06379752430113873
12620.0,0.020026504896688238
12624.0,-0.009888139871554107
12628.0,0.012442766433882679
12632.0,0.0026440326913516176
12636.0,0.02018704905618911
12640.0,-0.005204825642666804
12644.0,0.007022485930431463
12648.0,0.0019252505860885363
12652.0,-0.001943890409926825
12656.0,-0.008369763031879217
12660.0,0.0002871348710335849
12664.0,-0.002567265456451615
12668.0,-0.040059286714992495
12672.0,-0.08172050856871306
12676.0,-0.1169376815907043
12680.0,-0.16680301580313228
12684.0,0.00392052890715197
12688.0,0.10743378796229366
12692.0,0.2030325797806576
12696.0,0.3062145883507347
12700.0,0.42107272008083924
12704.0,0.5154256707894839
12708.0,0.6171539283071578
12712.0,0.7208465205805877
12716.0,0.8330366390173227
12720.0,0.9448883186970898
12724.0,1.0324053103761999
12728.0,0.9317628974814961
12732.0,0.8267228304762188
12736.0,0.7338506129209186
12740.0,0.6205057413654622
12744.0,0.5237532636935768
12748.0,0.43371846141782755
12752.0,0.31275745710273894
12756.0,0.20905192604362977
12760.0,0.10354230339952925
12764.0,-0.01776171953861321
12768.0,-0.07210411125284939
12772.0,-0.10898543179601186
12776.0,-0.16821931397667952
12780.0,-0.2527277231259558
12784.0,-0.3195399591865043
12788.0,-0.2692297206054091
12792.0,-0.19412185685293373
12796.0,-0.10736134970796538
12800.0,-0.07498629277704247
12804.0,-0.04868178315732816
12808.0,-0.06712064481110366
12812.0,-0.05168599952287755
12816.0,-0.05094589306323694
12820.0,-0.04618698634480442
12824.0,-0.041013825739713496
12828.0,-0.04542805429089039
12832.0,-0.03386618431451286
12836.0,-0.014263112681176672
12840.0,-0.041807204993361935
12844.0,-0.029901254843194933
12848.0,-0.01590811919652569
12852.0,-0.01175617089046857
12856.0,-0.002501108437623977
12860.0,-0.007438124892636629
12864.0,-0.009305346061517838
12868.0,-0.004738664934477302
12872.0,-0.020313727767604577
12876.0,-0.022983182059298612
12880.0,-0.0019262319739620755
12884.0,0.00349726652493038
12888.0,0.025026173771444997
12892.0,0.04174367992628507
12896.0,0.07602906853304044
12900.0,0.0897566611738896
12904.0,0.11100475779984961
12908.0,0.14280091457242325
12912.0,0.1466029320873351
12916.0,0.19533128562471339
12920.0,0.21186699654873561
12924.0,0.2191119263522845
12928.0,0.2460464912656178
12932.0,0.23936664505782046
12936.0,0.27161289691687784
12940.0,0.2468567895341041
12944.0,0.30744764635641436
12948.0,0.30597112487743394
12952.0,0.30388825892383475
12956.0,0.29602577537650493
12960.0,0.31516707835905694
12964.0,0.3251001833797458
12968.0,0.31476821328704585
12972.0,0.28134447370253673
12976.0,0.30625220265624153
12980.0,0.29101789590231325
12984.0,0.29754370901510724
12988.0,0.2781525356720813
12992.0,0.2712332957510873
12996.0,0.2508234653699197
13000.0,0.22859090308197186
13004.0,0.21791796384634962
13008.0,0.20343272427568052
13012.0,0.19292702375132087
13016.0,0.16265197019921177
13020.0,0.1253579559774169
13024.0,0.11712048786276148
13028.0,0.10009313405990125
13032.0,0.07872149882095014
13036.0,0.05239123768602596
13040.0,0.020315254382520593
13044.0,0.0004976753743406504
13048.0,0.001296288013285045
13052.0,0.0006393762407163521
13056.0,0.0006887919563294369
13060.0,0.008226286832319683
13064.0,0.007525841487136973
13068.0,-0.005701022782580486
13072.0,-0.004427228614493885
13076.0,-0.013172992890887907
13080.0,0.0018493733497520612
13084.0,-0.0002855346065269972
13088.0,-0.008406610722165444
13092.0,-0.0013500963034490299
13096.0,-0.0020029442990932562
13100.0,-0.0033146711894490133
13104.0,0.006035605449693686
13108.0,-0.0025425000481788624
13112.0,0.013667071220976976
13116.0,-0.006288587367816651
13120.0,0.004128374707617948
13124.0,-0.002931209378225175
13128.0,-0.03371874637603084
13132.0,-0.014523920271371366
13136.0,0.017638231541202698
13140.0,0.007409239138488867
13144.0,0.004511211112229497
13148.0,0.004569713366335392
13152.0,-0.005768136213519465
13156.0,-0.017395943906295702
13160.0,-3.481810325635481e-05
13164.0,-0.0032716141281974517
13168.0,-0.016464890587796537
13172.0,-0.00207602545521989
13176.0,-0.005436146050483265
13180.0,0.0005305972637897272
13184.0,0.01792213965450499
13188.0,-0.0018295533423934008
13192.0,0.0022400593471942946
13196.0,0.01084824231354257
13200.0,0.011725592420897773
13204.0,0.032598821315143064
13208.0,-0.00521510965392179
13212.0,-0.002025002486182302
13216.0,0.00034389596415160056
13220.0,0.009182700156905896
13224.0,-0.011540577752160086
13228.0,0.004989376596983008
13232.0,-0.015174549824654502
13236.0,0.015936717571452673
13240.0,0.03071148348798564
13244.0,-0.007301144160788865
13248.0,-0.002810440724926358
13252.0,-0.016084260645950532
13256.0,0.0038886753376388156
13260.0,0.0021826438506026
13264.0,-0.014932717914065368
13268.0,0.003808634194713423
13272.0,-0.006451763140185044
13276.0,0.004478915716779404
13280.0,0.00850010523774715
13284.0,0.005001260634005204
13288.0,0.007372868156727495
13292.0,-0.0027765765867236924
13296.0,-0.009754289906135208
13300.0,-0.010624554480260768
13304.0,-0.005812448709692037
13308.0,-0.0011939362108689302
13312.0,0.02012052587792872
13316.0,0.023246717327222912
13320.0,0.006470133951648567
13324.0,0.00960035543840757
13328.0,-0.012611970992796666
13332.0,0.008028848894452245
13336.0,0.018654886199835435
13340.0,0.003007701673927534
13344.0,-0.013703330726585179
13348.0,0.002521075762208742
13352.0,-0.02130973564739354
13356.0,-0.0016120144511000223
13360.0,0.015657429778601205
13364.0,-0.011004454748455605
13368.0,0.0106247782397496
13372.0,-0.004270878086627911
13376.0,0.0039874976385992095
13380.0,-0.017787161092670815
13384.0,0.03787164388630224
13388.0,0.06154258007025649
13392.0,0.11432267846889005
13396.0,0.14453713605935464
13400.0,0.1550494698906417
13404.0,0.16211672445100675
13408.0,0.20041045336888053
13412.0,0.19381052299007517
13416.0,0.21666926564322642
13420.0,0.23966899843235565
13424.0,0.24033195189643256
13428.0,0.24392230599420456
13432.0,0.24973345329020985
13436.0,0.23970928409209896
13440.0,0.23974346700534646
13444.0,0.22225434462131807
13448.0,0.20559613503463695
13452.0,0.21185020130829443
13456.0,0.1782233230444494
13460.0,0.14235836097332089
13464.0,0.11564577117092469
13468.0,0.06987105095413117
13472.0,0.06786416800375662
13476.0,0.02253673713275029
13480.0,0.004310099386863285
13484.0,0.002208750352840483
13488.0,0.002778305015006637
13492.0,-8.333103695853407e-05
13496.0,0.014139833937220046
13500.0,-0.005941601885284762
13504.0,0.020919660895904958
13508.0,-0.01172059344427849
13512.0,0.01696264755173691
13516.0,0.005952488144119431
13520.0,2.830927618817344e-06
13524.0,-0.02329431292249969
13528.0,-0.06745126955231409
13532.0,-0.11907830968544911
13536.0,-0.17235034298909935
13540.0,0.014802589845781929
13544.0,0.09737211337874474
13548.0,0.20396357539767326
13552.0,0.285826620518403
13556.0,0.39639105063147834
13560.0,0.5087889494000692
13564.0,0.608991783209859
13568.0,0.6987574957610458
13572.0,0.8122500852843108
13576.0,0.9124111810224663
13580.0,1.0056698014120198
13584.0,0.9134287240480612
13588.0,0.8166725248991226
13592.0,0.7207967216154632
13596.0,0.6042235207455909
13600.0,0.5143198758733337
13604.0,0.4048889234669422
13608.0,0.2855220618603921
13612.0,0.20408222340468488
13616.0,0.08210851592532822
13620.0,-0.01894676099148895
13624.0,-0.05928583089131228
13628.0,-0.12422718842630959
13632.0,-0.15556098425399684
13636.0,-0.23433528350988284
13640.0,-0.29300821174030656
13644.0,-0.22530856378555092
13648.0,-0.17621892120591748
13652.0,-0.12326301001724473
13656.0,-0.050851697912240715
13660.0,-0.060065168445999226
13664.0,-0.04919954011765163
13668.0,-0.046907083210471226
13672.0,-0.03233555302422279
13676.0,-0.02487969298701187
13680.0,-0.03876665370389404
13684.0,-0.04478553582068635
13688.0,-0.0201802105101498
13692.0,-0.05395563646243527
13696.0,-0.020122669687211093
13700.0,-0.023336435565666242
13704.0,-0.04001425795213001
13708.0,-0.022351425254077295
13712.0,-0.02191068148031975
13716.0,-0.021108632300755426
13720.0,-0.011703307700256982
13724.0,0.012399032224011203
13728.0,-0.013760846189566661
13732.0,-0.004340497682377507
13736.0,0.012956557976324496
13740.0,-0.02022705193676666
13744.0,0.02705988514757876
13748.0,0.06462666190864788
13752.0,0.08006652747343639
13756.0,0.06806771448559437
13760.0,0.1118422823445599
13764.0,0.1454336089624886
13768.0,0.13925864787635395
13772.0,0.1852971709994229
13776.0,0.19417162251240422
13780.0,0.21859348271007317
13784.0,0.24453029485913524
13788.0,0.23223191597395382
13792.0,0.2771389052659905
13796.0,0.2640821960173181
13800.0,0.2898114891273331
13804.0,0.28630876029192787
13808.0,0.28522167224669015
13812.0,0.2828245485887746
13816.0,0.3123142879092864
13820.0,0.2923129317182934
13824.0,0.3184453154773295
13828.0,0.29512094615195494
13832.0,0.2843617116366736
13836.0,0.28549044975052323
13840.0,0.2851025909684452
13844.0,0.2795720068579898
13848.0,0.26195605695603114
13852.0,0.2580496054775796
13856.0,0.22168012623410754
13860.0,0.1929281737448927
13864.0,0.21169587156263928
13868.0,0.17593133293047133
13872.0,0.1685572304503138
13876.0,0.14242132866378168
13880.0,0.11522504905822223
13884.0,0.09387095013177774
13888.0,0.0800905213050341
13892.0,0.052732356951655915
13896.0,0.0272713404928635
13900.0,-0.0028914130798061307
13904.0,0.009295043380676396
13908.0,-0.013255775457671887
13912.0,0.025047375226759833
13916.0,0.011406415490290185
13920.0,0.009013241791132326
13924.0,-0.00897233618890336
13928.0,-0.01271541650826057
13932.0,0.001349055310540282
13936.0,0.014405272697654039
13940.0,0.0008661138026078266
13944.0,0.0015001073808752622
13948.0,-0.004655734919570687
13952.0,0.004545869857510212
13956.0,-0.008636138945667036
13960.0,-0.011705428358004635
13964.0,-0.012066608002101192
13968.0,0.0010520493486573187
13972.0,-0.0001457138878138052
13976.0,0.00413628850360035
13980.0,-0.0035453863539970493
13984.0,0.011705516800451753
13988.0,0.006923796371655477
13992.0,0.00414486949024857
13996.0,0.009162696203228005
14000.0,0.00635043351759279
14004.0,0.007181017567907748
14008.0,-0.0038155275458126594
14012.0,-0.0003140938281799753
14016.0,0.011039936472186786
14020.0,-0.011428893506373128
14024.0,-0.0027496666244407274
14028.0,-0.005187626081203771
14032.0,0.0033622459470873103
14036.0,-0.007179444499886705
14040.0,0.003275625011636269
14044.0,0.005807061226609994
14048.0,-0.009122263996673425
14052.0,0.00018639369580045106
14056.0,0.00824469891409385
14060.0,0.0033082077700638496
14064.0,-0.00010903711959037351
14068.0,0.0049756641833251
14072.0,-0.005122472115438699
14076.0,0.015708918526987505
14080.0,-0.008769820752154909
14084.0,0.007376325759137324
14088.0,0.015012242708217603
14092.0,-0.001829193594558751
14096.0,0.00198103970728179
14100.0,0.0015374270679328682
14104.0,0.010164170056788182
14108.0,-0.00815427094306356
14112.0,0.012691740796262382
14116.0,-0.00901626116955968
14120.0,-7.369562139253914e-05
14124.0,0.012727049121970486
14128.0,-0.020292456879330806
14132.0,-0.009111009136616829
14136.0,0.004051776610957951
14140.0,-0.008440206418130905
14144.0,-0.0012686767186451933
14148.0,0.0005275707731370991
14152.0,-0.002268924014929595
14156.0,-0.008219087934909736
14160.0,0.0013654125481082195
14164.0,-0.010766459073326701
14168.0,-0.004599894951609605
14172.0,-0.006789106082637001
14176.0,0.009456632185011273
14180.0,0.014959089974522784
14184.0,0.017868395840041372
14188.0,-0.001053011009696927
14192.0,-0.004936062253965607
14196.0,-0.00752170188593774
14200.0,-0.0065165476638402876
14204.0,0.014415284834796791
14208.0,0.008545833315273331
14212.0,0.0021003104144400077
14216.0,-0.011849664382156906
14220.0,-0.005684233462266419
14224.0,-2.1362317805952805e-05
14228.0,-0.014042179317864306
14232.0,1.5936342063721188e-06
14236.0,0.011989664661544401
14240.0,0.042152519331489134
14244.0,0.078790736792313
14248.0,0.076003138555912
14252.0,0.11633706152201224
14256.0,0.15881654830989506
14260.0,0.1672269542969147
14264.0,0.18255117177302987
14268.0,0.20800399067077835
14272.0,0.21956656517514075
14276.0,0.24161161713382276
14280.0,0.24793515773656827
14284.0,0.23732442054501593
14288.0,0.26184671169722074
14292.0,0.23322544349759528
14296.0,0.22262105564026818
14300.0,0.23006914165018533
14304.0,0.2079800537209207
14308.0,0.17988071615517753
14312.0,0.1739497993576785
14316.0,0.1493463518030844
14320.0,0.11970919256357024
14324.0,0.08905928712988226
14328.0,0.05257839406038699
14332.0,0.0321849322839952
14336.0,0.0023871511444215113
14340.0,-0.0002923580312748089
14344.0,0.0018715867398790384
14348.0,0.0012725526647252375
14352.0,0.002575081095394211
14356.0,-0.0036198422863019577
14360.0,-0.001190915375091382
14364.0,0.009375247042682751
14368.0,-0.009573771501962229
14372.0,-0.002513894462349766
14376.0,0.006829822664401525
14380.0,-0.04281733134528321
14384.0,-0.06246216899778185
14388.0,-0.12056789681107603
14392.0,-0.16580168535396209
14396.0,-0.014887943938808355
14400.0,0.10705374136010291
14404.0,0.2174688340362948
14408.0,0.32407599907318524
14412.0,0.4072588123984901
14416.0,0.49099987636412
14420.0,0.5795519799239429
14424.0,0.6961754711294559
14428.0,0.8008555573385853
14432.0,0.8798713428357192
14436.0,0.9742487852186464
14440.0,0.8825047861003692
14444.0,0.7954155350845249
14448.0,0.6968225255720403
14452.0,0.5992509053406158
14456.0,0.5051310182322315
14460.0,0.3929532865476074
14464.0,0.294234914369044
14468.0,0.18726394550086564
14472.0,0.09930396150689912
14476.0,-0.007513905765459262
14480.0,-0.05267617913050647
14484.0,-0.11809487413848782
14488.0,-0.19674257657773017
14492.0,-0.24225843657015336
14496.0,-0.29303076595758387
14500.0,-0.23469347508998112
14504.0,-0.16861455488311883
14508.0,-0.1335922838953564
14512.0,-0.05066369485520671
14516.0,-0.04812003657942858
14520.0,-0.04871967450724195
14524.0,-0.03944094773011324
14528.0,-0.04132847333167652
14532.0,-0.03590184854481238
14536.0,-0.028943018840511897
14540.0,-0.013498479049869783
14544.0,-0.03226576236390166
14548.0,-0.023585811441618774
14552.0,-0.031747483546803415
14556.0,-0.0235272909119872
14560.0,-0.017172925554182646
14564.0,-0.009756186985549586
14568.0,-0.01206756375020828
14572.0,-0.027567373130404742
14576.0,-0.0142579360684085
14580.0,-0.005652207360629924
14584.0,0.003333223920722179
14588.0,0.012214578505987325
14592.0,0.004517503372503674
14596.0,0.007829250986899529
14600.0,0.020524105802374192
14604.0,0.054683313417240975
14608.0,0.06553678059313313
14612.0,0.09545442316127395
14616.0,0.11934667695554756
14620.0,0.11881221030863828
14624.0,0.1733894511028392
14628.0,0.16510958661961594
14632.0,0.19214186251341475
14636.0,0.2150371758938403
14640.0,0.22699634808104244
14644.0,0.23721704211620673
14648.0,0.2697835865894237
14652.0,0.26568344288913326
14656.0,0.267071562479791
14660.0,0.299386142527675
14664.0,0.2822556759975949
14668.0,0.2894672816473672
14672.0,0.3095767821245743
14676.0,0.28402843100181363
14680.0,0.291748143968909
14684.0,0.30908385736181593
14688.0,0.28332544152907174
14692.0,0.2742851632790068
14696.0,0.2735194505900905
14700.0,0.2552776250861118
14704.0,0.24472213616899038
14708.0,0.2502409551006312
14712.0,0.22537843946845956
14716.0,0.19888789121767092
14720.0,0.20334378524389207
14724.0,0.18017588427422424
14728.0,0.154092820461325
14732.0,0.1392313616210689
14736.0,0.120726416732877
14740.0,0.08610643878041332
14744.0,0.04951840851018127
14748.0,0.05727636573445235
14752.0,0.021748355055638425
14756.0,-0.0003374569193968614
14760.0,0.0008683923053710713
14764.0,0.00919044832189532
14768.0,-0.009005343808610764
14772.0,-0.0004021549277696391
14776.0,0.0029681551062368085
14780.0,-0.003250481783461259
14784.0,0.0049847903341592595
14788.0,0.021395160352669133
14792.0,0.005475215989768649
14796.0,-0.014162716446558902
14800.0,-0.01461165392333935
14804.0,-0.012352807488530215
14808.0,0.016473516474593143
14812.0,0.010362494272567486
14816.0,-0.010007093431016568
14820.0,0.010318836066395458
14824.0,-0.009953821732948174
14828.0,0.013589464432251822
14832.0,-0.004054210597997666
14836.0,-0.006195348428401157
14840.0,0.016376444874609083
14844.0,0.013298712886624103
14848.0,0.004960106908065769
14852.0,0.008320220825236207
14856.0,0.017294484531486902
14860.0,-0.014493236862917487
14864.0,0.016548819802382625
14868.0,-0.0035386319048805815
14872.0,0.006088702908753983
14876.0,-0.0034521985645753284
14880.0,-0.006848128491436102
14884.0,-0.0014012350235823017
14888.0,-0.0027976339100526802
14892.0,0.018657830268159654
14896.0,0.0019911199640675883
14900.0,-0.0010384534238706716
14904.0,-0.0175481895237764
14908.0,-0.015230944140744976
14912.0,0.019628024499811606
14916.0,-0.013357597628112717
14920.0,0.011792550498619457
14924.0,0.0037910816831216027
14928.0,0.004070872159214976
14932.0,0.013280945792301949
14936.0,-0.0019330217747637612
14940.0,-0.015498301896804807
14944.0,0.000358057759658209
14948.0,-0.008344866075469361
14952.0,0.01678251664479286
14956.0,0.005659070036159834
14960.0,0.004849597881064935
14964.0,-0.010913270638329553
14968.0,0.0033323319784322614
14972.0,0.011626487080531349
14976.0,0.0008933711500602142
14980.0,-0.007108371778544384
14984.0,0.0071600652278514
14988.0,-0.003589699870329378
14992.0,-0.010720448038283805
14996.0,-0.006368988634038028
15000.0,0.024393846457580623
15004.0,0.005449396511468344
15008.0,-0.005905106858445212
15012.0,0.00010779060462078569
15016.0,0.0009584412693532196
15020.0,-0.008388176029193927
15024.0,-0.008896211490103648
15028.0,-0.007315888698923927
15032.0,-0.016821095805736104
15036.0,0.0036670098881106034
15040.0,0.0044516539798736855
15044.0,-0.011777303429399652
15048.0,-0.020676670580473313
15052.0,-0.013215622415684592
15056.0,0.009265108259342686
15060.0,-0.000585763000748878
15064.0,-0.007980857274040794
15068.0,0.0050411265009222455
15072.0,-0.00770006282421861
15076.0,0.009663093694676859
15080.0,-0.008771766988580749
15084.0,-0.020436501388921495
15088.0,-0.0050715352089181895
15092.0,-0.0010466303446247398
15096.0,0.03575219689107159
15100.0,0.06907252376697642
15104.0,0.09250763665101905
15108.0,0.13123745633175207
15112.0,0.15035510305179905
15116.0,0.179831308054012
15120.0,0.2005536315741045
15124.0,0.20668983621393966
15128.0,0.22060839812154645
15132.0,0.23312770418404682
15136.0,0.24651211123734088
15140.0,0.250003359987997
15144.0,0.25742666468446723
15148.0,0.26870417300502114
15152.0,0.2411010154719888
15156.0,0.21514365634127358
15160.0,0.2262071763748396
15164.0,0.1918566092853352
15168.0,0.1821746337187375
15172.0,0.15054977467190636
15176.0,0.11095922315436525
15180.0,0.09510219811465578
15184.0,0.05150171020688875
15188.0,0.030177028684791156
15192.0,0.006646056247053338
15196.0,-0.00352181653193798
15200.0,-0.005584354572578379
15204.0,-0.008650631452407099
15208.0,-0.009168356999644627
15212.0,0.0005719860494437303
15216.0,-0.01360204203153873
15220.0,0.0074225958236363125
15224.0,-0.007824755505770496
15228.0,-0.003941829447287407
15232.0,0.0001694071735778254
15236.0,-0.035371042990709395
15240.0,-0.08833917123067052
15244.0,-0.13005293335706436
15248.0,-0.16973243676903363
15252.0,-0.002779759160992103
15256.0,0.11763082777278488
15260.0,0.21477830026123984
15264.0,0.2996132226773688
15268.0,0.4090075137019801
15272.0,0.521733799323261
15276.0,0.6071056655879193
15280.0,0.7110113235549573
15284.0,0.8168658410604095
15288.0,0.902203177439846
15292.0,1.0353801444165471
15296.0,0.9199325836523976
15300.0,0.8125255911495239
15304.0,0.7215007029945455
15308.0,0.6118670899436339
15312.0,0.5032277637777428
15316.0,0.42263286057184335
15320.0,0.31474692154360406
15324.0,0.2071124669609095
15328.0,0.09298342231510154
15332.0,0.005764004462253724
15336.0,-0.063421149611195
15340.0,-0.1007271577218711
15344.0,-0.16394426474756124
15348.0,-0.26200088147216444
15352.0,-0.2984459957522982
15356.0,-0.23629382813282154
15360.0,-0.157411850586371
15364.0,-0.12121072029362627
15368.0,-0.05496691747814671
15372.0,-0.04489913370907139
15376.0,-0.0670615725933548
15380.0,-0.034609092270179886
15384.0,-0.045023060385484356
15388.0,-0.042023889409243
15392.0,-0.029032391875448336
15396.0,-0.039587387995775054
15400.0,-0.038849136469655966
15404.0,-0.031172621609568164
15408.0,-0.03927347585620556
15412.0,-0.025553679505427866
15416.0,-0.03188020483355935
15420.0,-0.041850525313737466
15424.0,-0.0007182295999323719
15428.0,-0.022471273351160677
15432.0,-0.0030282662200863814
15436.0,-0.005199991609591253
15440.0,0.003071500712026577
15444.0,0.0013759451271668395
15448.0,-0.015922461426150093
15452.0,-0.0026105326556564667
15456.0,0.014394995944184523
15460.0,0.05502347062134511
15464.0,0.06562074272775403
15468.0,0.11164192839312943
15472.0,0.12056125789607311
15476.0,0.11242170314988052
15480.0,0.16797508870772543
15484.0,0.1683600532999457
15488.0,0.18760586448970532
15492.0,0.21938369412298586
15496.0,0.2380086803699401
15500.0,0.2453924113641839
15504.0,0.25365869962178533
15508.0,0.2641044501871415
15512.0,0.296903159839883
15516.0,0.3001566531600355
15520.0,0.29206947568184505
15524.0,0.30497891625016865
15528.0,0.3048430736706919
15532.0,0.3097256679307902
15536.0,0.30998223280553727
15540.0,0.2883899535220949
15544.0,0.2858348140463218
15548.0,0.283551001902914
15552.0,0.27450630019182765
15556.0,0.25284635116046805
15560.0,0.26464260514756915
15564.0,0.24506328266421
15568.0,0.21196615491466966
15572.0,0.2042326489795273
15576.0,0.2063509587174378
15580.0,0.19241767443533547
15584.0,0.1511695198031952
15588.0,0.12546850434683146
15592.0,0.1069824923386617
15596.0,0.09807779606121748
15600.0,0.07326856396194378
15604.0,0.0379499574139851
15608.0,0.02374919221082076
15612.0,-0.00522189087000861
15616.0,-0.013223984457309428
15620.0,-0.007299156743327998
15624.0,0.013990274866181665
15628.0,-0.01088483672161193
15632.0,-0.0007165580397818528
15636.0,-0.00016429678975479542
15640.0,0.006705716473985168
15644.0,-0.010910651153967969
15648.0,-0.0035707526536103364
15652.0,0.019041397172326755
15656.0,0.008327108063248306
15660.0,-0.008743053623738626
15664.0,0.0015199683648370501
15668.0,0.0005809956356021348
15672.0,-0.012771633638665411
15676.0,0.019283654090941273
15680.0,-0.009170825458420202
15684.0,0.0048844133572121745
15688.0,0.011044565267614886
15692.0,-0.0020963642092173256
15696.0,0.010123471927156449
15700.0,0.00943993080461349
15704.0,-0.0058444218128924
15708.0,-0.017768492553808624
15712.0,-0.010595959604495015
15716.0,0.014466180140854386
15720.0,-0.0007457416209934557
15724.0,-0.006591378851670287
15728.0,-0.006881323263842689
15732.0,0.008222667262060324
15736.0,-0.006159654816896747
15740.0,0.015328013318793209
15744.0,0.010728210849979897
15748.0,0.020771231970713157
15752.0,-0.007105046893661363
15756.0,-0.008868460429940899
15760.0,-0.025701381136188063
15764.0,0.0019068491772157464
15768.0,-0.0051518924218581655
15772.0,0.01036074018145358
15776.0,0.008257831505002308
15780.0,-0.005581261532546694
15784.0,0.012464393719104405
15788.0,0.010463351404984058
15792.0,0.006069080653411396
15796.0,0.00015237606942648666
15800.0,0.010235655280915858
15804.0,-0.007916870340024383
15808.0,-0.004425664804153453
15812.0,-0.002748539119969758
15816.0,0.007421660428588402
15820.0,0.01381257752235936
15824.0,-0.010423751725910374
15828.0,0.007570564793573981
15832.0,0.0049651932537238255
15836.0,0.006969356559230286
15840.0,-0.0009725924496374569
15844.0,0.001938228704188867
15848.0,0.00761253013266373
15852.0,0.011693261266139506
15856.0,-0.001955477597538495
15860.0,-0.023002762142330026
15864.0,-0.008504648393809352
15868.0,0.0006959979414293795
15872.0,-0.00526272915909373
15876.0,-0.007448462184899111
15880.0,0.008596955925383594
15884.0,0.011306373790530053
15888.0,-0.009189132281640745
15892.0,0.006013200420749657
15896.0,-0.013559768312003413
15900.0,0.0042381729807514715
15904.0,-0.02209721272727727
15908.0,0.007065680712059805
15912.0,-0.001367476024728203
15916.0,-0.005814112241089439
15920.0,-0.0019184621219871746
15924.0,0.001328810483331737
15928.0,-2.607303920214173e-05
15932.0,-0.009330783220331061
15936.0,-0.005278615440890811
15940.0,0.012653877157200896
15944.0,0.0033946218490106114
15948.0,0.004275864364713854
15952.0,0.03399782828834827
15956.0,0.06674031329462905
15960.0,0.09499602464571742
15964.0,0.1290825878496244
15968.0,0.13931716766782723
15972.0,0.17107577908808858
15976.0,0.2090377793744077
15980.0,0.2130954852561034
15984.0,0.24718712261687759
15988.0,0.25014632925746766
15992.0,0.2694067007845594
15996.0,0.24398559885943408
16000.0,0.264808928074713
16004.0,0.2607370554840836
16008.0,0.24769456927932812
16012.0,0.2217529412465466
16016.0,0.2245616982638753
16020.0,0.21020623460386892
16024.0,0.1645920553233542
16028.0,0.16726060460644482
16032.0,0.12105401356695143
16036.0,0.12465597419574048
16040.0,0.07539116324789329
16044.0,0.02642900785829896
16048.0,-0.008855407381235638
16052.0,-0.0029015847000688163
16056.0,-0.01434428783642191
16060.0,0.007265642936302553
16064.0,-0.0009530672138060349
16068.0,-0.0038246073641254965
16072.0,-0.001575523431460912
16076.0,0.0016209867350242414
16080.0,0.005607668244148366
16084.0,0.0017414032793535894
16088.0,-0.021035403682324913
16092.0,-0.046415444054634575
16096.0,-0.0844768345120109
16100.0,-0.12310631992399608
16104.0,-0.1621612788383935
16108.0,-0.0075240158257694825
16112.0,0.11630765592710131
16116.0,0.20859476143597014
16120.0,0.3029410809591365
16124.0,0.4363657893753483
16128.0,0.519660309491589
16132.0,0.6239804524949357
16136.0,0.7071878432240513
16140.0,0.8347852530529881
16144.0,0.9467647830495439
16148.0,1.056715821396311
16152.0,0.9333699739736228
16156.0,0.8275730625596498
16160.0,0.7345078117538845
16164.0,0.626272709753446
16168.0,0.5097910606242946
16172.0,0.4177560817534163
16176.0,0.30749446668940855
16180.0,0.21208465611854072
16184.0,0.10341668902188314
16188.0,0.007777501323491192
16192.0,-0.04180438050011305
16196.0,-0.12605281678168406
16200.0,-0.1868594296132955
16204.0,-0.2555587362741357
16208.0,-0.309042359105492
16212.0,-0.2619467579533422
16216.0,-0.1683530518047823
16220.0,-0.13382708213307523
16224.0,-0.06890002279370552
16228.0,-0.07067153698805513
16232.0,-0.049696199644585035
16236.0,-0.06754002670000733
16240.0,-0.04931312654253331
16244.0,-0.033271923549583846
16248.0,-0.049196909676197706
16252.0,-0.033002686554588524
16256.0,-0.03360044564822427
16260.0,-0.030882629282568703
16264.0,-0.03106776665203486
16268.0,-0.02613716133995418
16272.0,-0.012288347684828107
16276.0,-0.003807498731151701
16280.0,-0.01892677170834209
16284.0,-0.008870665274938551
16288.0,-0.019798245077083117
16292.0,-0.0074215273529384205
16296.0,-0.0193260405005321
16300.0,-0.01381194140365502
16304.0,-0.003540756465682516
16308.0,-0.02446256123678311
16312.0,0.020291640134389402
16316.0,0.04772484569369231
16320.0,0.05726747966930526
16324.0,0.09271848732030133
16328.0,0.11714515799624524
16332.0,0.1454156835645194
16336.0,0.17108594357482243
16340.0,0.1959474621372146
16344.0,0.2007402924793778
16348.0,0.22318590803347704
16352.0,0.24888804591224356
16356.0,0.25753222760576283
16360.0,0.2713344369536855
16364.0,0.27945403967904475
16368.0,0.2918330023215147
16372.0,0.29213812504309583
16376.0,0.2981829136725006
16380.0,0.30740696883769825
16384.0,0.2985309973574193
16388.0,0.313709210974079
16392.0,0.2916160684736953
16396.0,0.29281013991429583
16400.0,0.2883702148201698
16404.0,0.2785498137682435
16408.0,0.2795950310585006
16412.0,0.2846814923203666
16416.0,0.25737742515336925
16420.0,0.23491143989296265
16424.0,0.23165909303703922
16428.0,0.2290077332413815
16432.0,0.19968304589819233
16436.0,0.17562471649255104
16440.0,0.18333921476753665
16444.0,0.14876219286362558
16448.0,0.10376489760437801
16452.0,0.1050588082630432
16456.0,0.08537164996055924
16460.0,0.05575647957453983
16464.0,0.017227651496239244
16468.0,0.018576464718765374
16472.0,-0.006714224837623837
16476.0,0.004379326520868675
16480.0,-0.01715647084009483
16484.0,0.009006290816965001
16488.0,0.0133043211184068
16492.0,0.001136450794353427
16496.0,-0.005371271861230648
16500.0,0.008969548861708485
16504.0,-0.018717789903965373
16508.0,0.015558173485117094
16512.0,-0.02660937023969104
16516.0,-0.015394012308918095
16520.0,-0.000447336830621598
16524.0,-0.0011307309474980925
16528.0,0.006439908515806027
16532.0,0.008569835455155422
16536.0,-0.005642007388614868
16540.0,-0.01450796232272781
16544.0,0.012932963692656872
16548.0,0.0007970807179256571
16552.0,0.010162810320545803
16556.0,0.00922854360840113
16560.0,0.004656044170908993
16564.0,0.020223600431675162
16568.0,0.004735018202835455
16572.0,0.007794768992265147
16576.0,0.02755141569835784
16580.0,-0.023568791626417736
16584.0,0.0022429808186608465
16588.0,-0.0028401129777293984
16592.0,0.0005394657310577091
16596.0,-0.013880656514343242
16600.0,0.011227816903867928
16604.0,-0.00463939130608585
16608.0,-0.018061132823196754
16612.0,0.01422245681147917
16616.0,-0.012814407131130773
16620.0,-0.0037003751484187613
16624.0,-0.02823727092812528
16628.0,0.0052667461669458696
16632.0,-0.016850567528135373
16636.0,-8.47632946899923e-05
16640.0,-0.005850193420033289
16644.0,-0.004823602506486385
16648.0,0.003069452086324827
16652.0,0.007598645054992228
16656.0,0.0010736560850971143
16660.0,-0.016319823519235003
16664.0,-0.0016516512088216593
16668.0,-0.0007816416803347355
16672.0,-0.01064721933211169
16676.0,-0.0007287383480622774
16680.0,0.009193845087377164
16684.0,-0.004311956278896041
16688.0,0.007879802691151834
16692.0,-0.0043207041036066466
16696.0,0.0034972930832760773
16700.0,-0.0032566956938566423
16704.0,-0.011729002759857955
16708.0,0.013210726056980641
16712.0,0.002795160213830284
16716.0,-0.018629804173515542
16720.0,-0.014462685577225505
16724.0,-0.007729607629831185
16728.0,0.002649700631449813
16732.0,-0.0070135422182766366
16736.0,-0.0027708860131112813
16740.0,-0.007580908398046961
16744.0,-0.0023910915855129603
16748.0,0.0001810763635953821
16752.0,0.002972444052598823
16756.0,0.015152876876449234
16760.0,-0.00012869369891013748
16764.0,0.002114093643825646
16768.0,0.012038978355170121
16772.0,-0.011485345401827043
16776.0,0.006937795677986445
16780.0,-0.009297449829988492
16784.0,0.01707680012404698
16788.0,-0.012821818511279429
16792.0,0.011369990228667543
16796.0,0.01403276867762344
16800.0,-0.004260153808909438
16804.0,0.00279011766165465
16808.0,0.02985486913172275
16812.0,0.07069783287092671
16816.0,0.09633250950671718
16820.0,0.1256010445310475
16824.0,0.1455713754679565
16828.0,0.15888443242852762
16832.0,0.20346715885040245
16836.0,0.20085166485669803
16840.0,0.20408352916456368
16844.0,0.22289183268803428
16848.0,0.24489879962473646
16852.0,0.24467762800191234
16856.0,0.26359830315200916
16860.0,0.23999878279515974
16864.0,0.230859767678623
16868.0,0.23028737548929754
16872.0,0.2044760140645061
16876.0,0.18922813768150115
16880.0,0.1728501958075943
16884.0,0.15472732549471135
16888.0,0.11026644514733237
16892.0,0.11148510546941462
16896.0,0.06702233691967845
16900.0,0.03828574669993558
16904.0,-0.0018817359465558966
16908.0,-0.003368397502509057
16912.0,0.018058760194978842
16916.0,-0.01015946361926638
16920.0,0.0029500100728391742
16924.0,-0.017093963191016737
16928.0,-0.0066972179112205115
16932.0,-0.009596682459049478
16936.0,0.014723431663735362
16940.0,0.01457619275112197
16944.0,0.022445866043540912
16948.0,-0.02462170282469747
16952.0,-0.0808513876429318
16956.0,-0.12612697023591274
16960.0,-0.15893189968061336
16964.0,-0.002827665605510577
16968.0,0.0957791996352813
16972.0,0.1966429791935879
16976.0,0.28550199723831127
16980.0,0.37277977479096847
16984.0,0.47814963878733524
16988.0,0.59721458428148
16992.0,0.6817361757233492
16996.0,0.8037866035698098
17000.0,0.8888887923260159
17004.0,0.985735190222549
17008.0,0.8813174319901375
17012.0,0.7797399587923312
17016.0,0.6827838499636317
17020.0,0.56907158853032
17024.0,0.48092022872790796
17028.0,0.37560739628019746
17032.0,0.3056860962946007
17036.0,0.2008748068442132
17040.0,0.09871736902143761
17044.0,0.004321448975515542
