time,value
0.0,-0.013494767946215798
4.0,0.013108240456738316
8.0,-0.006515964444562824
12.0,0.004542772624905543
16.0,0.0008304531303862248
20.0,0.0033101272837299843
24.0,-0.0005515665630834102
28.0,0.013408333009862935
32.0,0.0009461950915570534
36.0,0.017780831665918366
40.0,-0.010175376067511377
44.0,0.004921374048028749
48.0,-0.011849567351194183
52.0,0.006137584093666497
56.0,-0.0011519441497060945
60.0,0.004898796929455852
64.0,0.009179851418038535
68.0,-0.0010314005801186812
72.0,-0.0035439482269180858
76.0,0.00763848151840639
80.0,0.013683932098677402
84.0,0.002308806404116032
88.0,-0.014249905297429427
92.0,-0.006993786037003258
96.0,-0.010394933440062471
100.0,0.003303951970815124
104.0,-0.017933501010265526
108.0,-0.008151002541052737
112.0,0.0007369244198419571
116.0,-0.0011588480792603564
120.0,0.01228488184681644
124.0,-0.0035842463857570913
128.0,0.005804999348682307
132.0,0.011076024543207795
136.0,8.703522506906489e-05
140.0,-0.005359435447658072
144.0,0.0034255274955665794
148.0,-0.005012400998038906
152.0,-0.004619276742562546
156.0,0.008440802631871245
160.0,0.003769300781332898
164.0,0.015457589946290056
168.0,0.0030685807699593268
172.0,0.011301589124258452
176.0,0.003555072015719121
180.0,0.018715676700648807
184.0,-0.002242263516368254
188.0,-0.001536389525773329
192.0,0.007361643384463236
196.0,0.012621923058942565
200.0,0.008800703529828155
204.0,0.002324684485720771
208.0,0.014827732922883094
212.0,-0.002379686978582283
216.0,0.0005923648504288184
220.0,-0.0009510462328594481
224.0,-0.018044212745040297
228.0,0.0011018089357879481
232.0,-0.022548286560851078
236.0,-0.003994064094309315
240.0,0.007029633766227537
244.0,0.0041039722430343
248.0,-0.015112954016962903
252.0,0.009415323621324445
256.0,0.013503575421239667
260.0,0.005753397638794428
264.0,0.0008591148268178504
268.0,0.010131814945280928
272.0,0.011150672264141322
276.0,-0.0035601776751571757
280.0,0.021472431317343447
284.0,-0.012922131913268532
288.0,0.0026236057794588935
292.0,0.006928538516927506
296.0,0.00040394087544024914
300.0,-0.007311915581476705
304.0,-0.009698247753655631
308.0,0.010043844381373826
312.0,-0.005808040949117472
316.0,0.013247331613471212
320.0,-0.01427001554892298
324.0,-9.849134209756054e-05
328.0,0.005888715407660268
332.0,-0.003211295284075905
336.0,0.02001320216543881
340.0,-0.01701464365838766
344.0,0.01255331728508962
348.0,0.0012402060680075221
352.0,0.011394614566949315
356.0,-0.007813281503849984
360.0,0.0034538269584654603
364.0,0.0058118824083221296
368.0,0.006414560924183917
372.0,-0.022074477702410028
376.0,-0.016411544035316566
380.0,-0.003434557672267767
384.0,0.015609322105376666
388.0,0.008501351750193986
392.0,0.014629931717344932
396.0,-0.006130224850566598
400.0,0.0070557530565949714
404.0,0.008416163620160193
408.0,0.0014830901028270236
412.0,-0.005102445890311796
416.0,-0.008241801281385422
420.0,-0.007423099828883553
424.0,0.012136438716623293
428.0,0.001832968922243143
432.0,0.016581079407911304
436.0,-0.007500706225077677
440.0,-0.0016184004784895246
444.0,0.018261111751160897
448.0,0.009888907912393236
452.0,0.0014111373605915107
456.0,-0.009399772401523293
460.0,-0.0015526987054095911
464.0,0.009832992122357003
468.0,0.002040289312891114
472.0,0.0013746265233673634
476.0,0.001837197704495093
480.0,0.005240813979523004
484.0,0.015142869023190468
488.0,-0.007686905140996674
492.0,-0.0037656039965717697
496.0,0.0214310357096897
500.0,0.005600518115712916
504.0,-0.003971352091505026
508.0,-0.003025974706642396
512.0,0.005019000591783957
516.0,0.0010224204246533518
520.0,0.0072900235935271845
524.0,0.006631286297927275
528.0,-0.01749355141966534
532.0,0.0012368793185189829
536.0,0.009080961215991036
540.0,0.028667389598245562
544.0,0.037783508549422494
548.0,0.06945471745658957
552.0,0.09232890183919397
556.0,0.10532459267035668
560.0,0.1529152393845549
564.0,0.1759785321351597
568.0,0.1815543784740906
572.0,0.21931762879540836
576.0,0.2319745946203288
580.0,0.23383018760202692
584.0,0.24653421530230357
588.0,0.25780400095064887
592.0,0.24181088463608358
596.0,0.24394864890789272
600.0,0.21954606753900685
604.0,0.22049304008050288
608.0,0.20293217229534297
612.0,0.1934791635818785
616.0,0.15846413813483792
620.0,0.1262608285076249
624.0,0.11391581733536336
628.0,0.11172418566040475
632.0,0.06391448669293505
636.0,0.04347346105912713
640.0,-0.010520694860611966
644.0,0.008501681242875899
648.0,-0.004113670019303926
652.0,-0.0015494674835673447
656.0,0.004579215015576001
660.0,0.00032930555816575554
664.0,0.017092511088037898
668.0,0.011759744481678255
672.0,0.004732426447761628
676.0,0.0052300635216200484
680.0,0.015822570928449964
684.0,-0.04188253398216332
688.0,-0.06998956484413721
692.0,-0.13422290115509433
696.0,-0.17095553832071772
700.0,-0.002196332819709304
704.0,0.09083167940477509
708.0,0.19638450892396533
712.0,0.3010497937770452
716.0,0.4055701144415262
720.0,0.5013450935493879
724.0,0.5918543236668213
728.0,0.7126205746578813
732.0,0.7932903659251316
736.0,0.9242443235110648
740.0,1.0339784675463308
744.0,0.9121193454215342
748.0,0.8114599360461695
752.0,0.72191540942903
756.0,0.614870741020776
760.0,0.5139231246946447
764.0,0.4093358081766246
768.0,0.3040522698032542
772.0,0.21016711205977315
776.0,0.10881935710208493
780.0,0.01133868066677674
784.0,-0.04696426153850479
788.0,-0.1424878515611482
792.0,-0.18809347499254842
796.0,-0.25274883966346245
800.0,-0.3098630373805335
804.0,-0.24479185441472096
808.0,-0.18472615793252292
812.0,-0.10744263280655172
816.0,-0.05875791128108517
820.0,-0.060696897567554746
824.0,-0.05677631307322456
828.0,-0.03424700414786878
832.0,-0.03572933855211538
836.0,-0.04150021833919664
840.0,-0.04165744166667951
844.0,-0.05005208060049837
848.0,-0.05862322981975583
852.0,-0.022239994650074833
856.0,-0.017380974329720245
860.0,-0.025268193886943124
864.0,-0.031051837020334642
868.0,-0.02784491152739141
872.0,-0.024332676150838454
876.0,-0.02832145244735826
880.0,-0.017032433494105017
884.0,-0.0025801218269738647
888.0,-0.022987987850199357
892.0,0.004145080935811672
896.0,0.013487028293649114
900.0,-0.014132660580882155
904.0,0.02492002098209305
908.0,0.04710265576582453
912.0,0.0625676301481343
916.0,0.09966475668696878
920.0,0.13155078955094834
924.0,0.14572752658317992
928.0,0.16554247501737754
932.0,0.17816665528459782
936.0,0.2030017594242594
940.0,0.2230663758284643
944.0,0.24475107773604932
948.0,0.25964500058467327
952.0,0.2554144528174125
956.0,0.26284363592048804
960.0,0.27501066970961763
964.0,0.29147853535690016
968.0,0.2895738876263307
972.0,0.3054541381924429
976.0,0.3140388338989523
980.0,0.31226425781611805
984.0,0.2862410707469041
988.0,0.2960855052553177
992.0,0.28032482627536937
996.0,0.2808471399508752
1000.0,0.2824650012891789
1004.0,0.26105922007975013
1008.0,0.26007947578905877
1012.0,0.2703783701619419
1016.0,0.2297691956771861
1020.0,0.2115374362448518
1024.0,0.18817160028066407
1028.0,0.17054585730998334
1032.0,0.1694188549945359
1036.0,0.14128882099509377
1040.0,0.12020703435040613
1044.0,0.09912284368467233
1048.0,0.0629908128295882
1052.0,0.052722644951389654
1056.0,0.029960507729280984
1060.0,-0.013486949473562673
1064.0,0.0009377713936595121
1068.0,-0.01711263470978425
1072.0,0.009114335109395126
1076.0,-0.010290991830608538
1080.0,-0.005334449211013435
1084.0,-0.005029715637739066
1088.0,0.009050171691316158
1092.0,0.0028062842650291597
1096.0,0.0004810125010959513
1100.0,0.004082986089434992
1104.0,0.003650412240108582
1108.0,0.015095218248256713
1112.0,-0.011745989315986607
1116.0,0.012380931388169668
1120.0,0.010304615322965475
1124.0,-0.009851802927037814
1128.0,-0.020741263090533237
1132.0,0.01491578206837118
1136.0,-0.005268058310935193
1140.0,-0.009166059719952201
1144.0,0.011462355689982188
1148.0,-0.01258457155185967
1152.0,-0.012025381020424813
1156.0,-0.006418818925570491
1160.0,0.00012219267054591868
1164.0,-0.01861206013164242
1168.0,0.0006480955236359817
1172.0,-0.008232860359914804
1176.0,0.0035544383622896024
1180.0,-0.01077214037386992
1184.0,0.008818930189593892
1188.0,-0.004366404088940868
1192.0,-0.023923792923078835
1196.0,0.00871863288072318
1200.0,-0.007411436755115909
1204.0,0.005251643108075485
1208.0,0.03055390867211169
1212.0,0.0838806892171739
1216.0,0.0950244531145214
1220.0,0.15355370321281397
1224.0,0.13762111553462045
1228.0,0.1735751846864625
1232.0,0.20107338370767294
1236.0,0.20332720073912192
1240.0,0.23783369833497497
1244.0,0.2559720844598473
1248.0,0.2520703160046914
1252.0,0.2574261286032439
1256.0,0.26381533346879305
1260.0,0.25354645141137216
1264.0,0.2524769120677161
1268.0,0.24012671590872808
1272.0,0.2260670951666942
1276.0,0.2115140599468852
1280.0,0.17807534022280824
1284.0,0.14378960266111238
1288.0,0.12104629591945362
1292.0,0.08404304033659855
1296.0,0.06106889404016042
1300.0,0.0498741395379589
1304.0,0.006112832268108587
1308.0,-0.0006830833125555337
1312.0,-0.004391813166614626
1316.0,-0.007669663607107972
1320.0,0.004286620754078156
1324.0,0.005324175033396719
1328.0,0.0046290822161724485
1332.0,0.00922276806076787
1336.0,0.005880395150921203
1340.0,0.0016292562843845861
1344.0,0.013445188158788835
1348.0,-0.044217500388826436
1352.0,-0.07670304419676215
1356.0,-0.12328916568365636
1360.0,-0.1674880573838116
1364.0,-0.0023258088150104055
1368.0,0.10870849876684383
1372.0,0.1853347327537912
1376.0,0.2946932126056405
1380.0,0.4118686536514376
1384.0,0.5048218965768898
1388.0,0.5931167360218425
1392.0,0.7014698425636645
1396.0,0.8137407493182712
1400.0,0.9176854095672471
1404.0,1.0171930932490123
1408.0,0.9288551772855647
1412.0,0.8169632035870871
1416.0,0.7139774494603922
1420.0,0.615235280199579
1424.0,0.514231459433936
1428.0,0.41353100904269585
1432.0,0.29411181216671817
1436.0,0.19895582745328072
1440.0,0.10748272862010713
1444.0,0.0049879210081880615
1448.0,-0.06070759571533623
1452.0,-0.1118975798027644
1456.0,-0.18416320147775206
1460.0,-0.23560972491440652
1464.0,-0.31376436613902475
1468.0,-0.2511360483816043
1472.0,-0.19757721281496565
1476.0,-0.133245711747152
1480.0,-0.06708839634812984
1484.0,-0.061766641462668526
1488.0,-0.042532900986962344
1492.0,-0.06139215009800259
1496.0,-0.04190286440218213
1500.0,-0.04290734306197019
1504.0,-0.03993112914966545
1508.0,-0.020510341748536536
1512.0,-0.02596962007478667
1516.0,-0.022856132560883154
1520.0,-0.02868396584939583
1524.0,-0.026723369524555275
1528.0,-0.01372114147495805
1532.0,-0.002853241404551541
1536.0,-0.02230097914452399
1540.0,-0.04030631393902212
1544.0,-0.013878890528745923
1548.0,-0.02377644840360168
1552.0,-0.012007788498133392
1556.0,-0.005447376138443261
1560.0,0.0011410015906317588
1564.0,-0.00639752135744343
1568.0,0.011979361379607138
1572.0,0.03925064906675063
1576.0,0.08643046042177348
1580.0,0.08706467119690474
1584.0,0.12182887446733108
1588.0,0.13885099759280675
1592.0,0.1622434644054677
1596.0,0.18387420035753607
1600.0,0.18150241060113598
1604.0,0.2102406014463602
1608.0,0.22770632171570598
1612.0,0.25946966273242056
1616.0,0.2533623106006061
1620.0,0.2771558949768776
1624.0,0.29040480321928036
1628.0,0.3013141455252487
1632.0,0.30542483081902766
1636.0,0.3175486447064119
1640.0,0.307105804659381
1644.0,0.3118764445966119
1648.0,0.28326576482460863
1652.0,0.30522541079201254
1656.0,0.30527364752481456
1660.0,0.2978001858708481
1664.0,0.2747989034215493
1668.0,0.2800943531406374
1672.0,0.25552878692964126
1676.0,0.253934238604116
1680.0,0.20680989530314223
1684.0,0.20639088710022674
1688.0,0.211535462289481
1692.0,0.1850027303489945
1696.0,0.1614046395885909
1700.0,0.1336721377082097
1704.0,0.1292009063887314
1708.0,0.09152271510681073
1712.0,0.0746470197784897
1716.0,0.029417511733463672
1720.0,0.03575179763422044
1724.0,0.0016813852265472951
1728.0,-0.004680953879697151
1732.0,-0.005335835011322528
1736.0,0.0014210740391462182
1740.0,-0.00048295259254193385
1744.0,-0.015104263801798834
1748.0,0.010425463412191369
1752.0,-0.014794975965822708
1756.0,0.0035293454903414226
1760.0,-0.0026654157921110573
1764.0,-0.018697117601394683
1768.0,-0.0010086776807261314
1772.0,-0.009289061378035274
1776.0,0.009084180202012852
1780.0,0.011266125566294503
1784.0,0.002637920320388657
1788.0,0.003771162121015042
1792.0,0.0020676009575277083
1796.0,0.001329037202058949
1800.0,0.004040931029190461
1804.0,-0.008303670179536524
1808.0,-0.009498728876286463
1812.0,-0.0019429849134751356
1816.0,-0.0005162876783710754
1820.0,0.014607304209786193
1824.0,0.0036697425181953136
1828.0,0.012870914457777915
1832.0,0.008292414382040642
1836.0,-0.0029965314039892784
1840.0,-0.006857142143490922
1844.0,-0.0053224862197085035
1848.0,-0.012377442453833421
1852.0,0.002470003612525762
1856.0,0.009460031177075891
1860.0,0.008479826935857063
1864.0,-0.00725086636510641
1868.0,0.007999289020634816
1872.0,0.030706415679523712
1876.0,0.06961208766942392
1880.0,0.08378695299683077
1884.0,0.12476065047205073
1888.0,0.1244904938081434
1892.0,0.15773390594592954
1896.0,0.18156630376973698
1900.0,0.20823608316019965
1904.0,0.21283513062361584
1908.0,0.24987702937898373
1912.0,0.27057258452385047
1916.0,0.25967040421797405
1920.0,0.23900335897985248
1924.0,0.2485505861521812
1928.0,0.26245611152236914
1932.0,0.22671404092580952
1936.0,0.19865338316814857
1940.0,0.1889202449520112
1944.0,0.1686435186210983
1948.0,0.15168888943621792
1952.0,0.10344071263260181
1956.0,0.08290213841934409
1960.0,0.05636950368910116
1964.0,0.04899561659541488
1968.0,0.004176287336408426
1972.0,0.005420407805747488
1976.0,-0.000285501141700696
1980.0,0.015130135629412829
1984.0,0.014649575469940411
1988.0,-0.0129381255559926
1992.0,-0.014052405049492034
1996.0,0.0011668686634157448
2000.0,-0.003672382842003588
2004.0,0.007980561889440147
2008.0,-0.0034978391832868262
2012.0,-0.03941969867734678
2016.0,-0.07447397720867718
2020.0,-0.13202169441412442
2024.0,-0.15884571545974438
2028.0,0.003876479342517739
2032.0,0.10480443066114091
2036.0,0.19502296904804198
2040.0,0.3025861072924515
2044.0,0.403669662722205
2048.0,0.49943291118949357
2052.0,0.6034485005759546
2056.0,0.7164286736770554
2060.0,0.803813715168369
2064.0,0.9036136805323624
2068.0,0.9983996776403765
2072.0,0.8921248908635083
2076.0,0.8040355921580392
2080.0,0.7064590398400656
2084.0,0.5854636114610823
2088.0,0.5018801309517356
2092.0,0.4071885697390523
2096.0,0.299317167997837
2100.0,0.19493519396176945
2104.0,0.10783121252023056
2108.0,0.01537954571752409
2112.0,-0.0660769305090642
2116.0,-0.12980855533838628
2120.0,-0.1928204579854047
2124.0,-0.23816160267395467
2128.0,-0.29336022477288093
2132.0,-0.2202909110659189
2136.0,-0.179049187249576
2140.0,-0.14447565407461035
2144.0,-0.06169218568281565
2148.0,-0.03203840008164454
2152.0,-0.056499959390060195
2156.0,-0.058607548446657054
2160.0,-0.029572883331501904
2164.0,-0.02828458702544201
2168.0,-0.03953156433854784
2172.0,-0.043619979852207516
2176.0,-0.03873440571688263
2180.0,-0.01716969305454968
2184.0,-0.022530943013887805
2188.0,-0.029077004829352507
2192.0,-0.019784254613757254
2196.0,-0.015673728277572328
2200.0,-0.019609007454406583
2204.0,-0.022750746847801175
2208.0,-0.004554667964858901
2212.0,-0.01688561957353923
2216.0,-0.007555667763285282
2220.0,-0.018348170194665073
2224.0,-0.00817606113372648
2228.0,-0.01687727483488618
2232.0,0.01962339424680653
2236.0,0.04932575357521608
2240.0,0.059074670924580186
2244.0,0.09195962982432468
2248.0,0.11395950626158757
2252.0,0.12922186435633287
2256.0,0.1483045990758013
2260.0,0.16930139970663086
2264.0,0.1962314393411047
2268.0,0.21785877191491976
2272.0,0.24923209434993648
2276.0,0.23310108966397358
2280.0,0.2776744994560763
2284.0,0.2781785020956954
2288.0,0.2645556401959708
2292.0,0.29560654973583433
2296.0,0.29072834888063054
2300.0,0.29389314468163535
2304.0,0.3138372780365211
2308.0,0.3001413530680957
2312.0,0.2874809927308385
2316.0,0.2839860899905619
2320.0,0.29759513044801084
2324.0,0.2835792153181891
2328.0,0.28785343505227956
2332.0,0.2562223525402303
2336.0,0.25376746308728815
2340.0,0.26631594212651005
2344.0,0.23516106666082007
2348.0,0.19750009813235753
2352.0,0.18265458024245787
2356.0,0.1700337912047229
2360.0,0.1369533878448311
2364.0,0.13844435849492162
2368.0,0.11239438859941665
2372.0,0.10897437924593978
2376.0,0.07300578953762911
2380.0,0.04305055857831667
2384.0,0.0011508768778318544
2388.0,-0.01695157480409434
2392.0,0.008677454897084878
2396.0,-0.018059002321313754
2400.0,0.015829043715219166
2404.0,-0.009192851199980758
2408.0,0.004092820064271931
2412.0,0.006912851111881387
2416.0,0.006406097283281357
2420.0,0.012562207056990385
2424.0,0.008230686043885459
2428.0,0.01592011567029245
2432.0,-0.0006811116545759496
2436.0,0.019739635929233338
2440.0,0.012161825092557482
2444.0,-0.003630843025600693
2448.0,0.003199627803543742
2452.0,-9.241884860239486e-05
2456.0,0.0019230445328228575
2460.0,0.020817429260711805
2464.0,-0.013139581892361439
2468.0,0.006996718752625095
2472.0,0.0005457264617614433
2476.0,0.0013342380887804168
2480.0,0.011792631725698268
2484.0,-0.012040246602474807
2488.0,0.011852554587018449
2492.0,0.018034734899437334
2496.0,-0.00766790941829522
2500.0,-0.010163861637354055
2504.0,-0.020774125147620892
2508.0,0.006731786527470814
2512.0,0.017296437830207807
2516.0,-0.0035622785466699297
2520.0,0.0020592026428070563
2524.0,0.0041135815702514735
2528.0,0.0010973831846213405
2532.0,-0.020960821635440868
2536.0,0.01569742402163523
2540.0,0.06314257592488386
2544.0,0.09985710438084738
2548.0,0.11999430252761843
2552.0,0.14062863204340584
2556.0,0.1624531429683201
2560.0,0.19089549866164016
2564.0,0.2116457885966445
2568.0,0.21650809195490198
2572.0,0.2397747089890101
2576.0,0.2459527673086116
2580.0,0.23931845606156002
2584.0,0.2523857283147077
2588.0,0.21563903483937505
2592.0,0.22733840941039157
2596.0,0.21942260479826722
2600.0,0.2009866294628048
2604.0,0.18891899200198387
2608.0,0.17142069930980106
2612.0,0.14306693887296287
2616.0,0.1068276701760222
2620.0,0.09542500748486665
2624.0,0.03823544607029486
2628.0,0.010191088452817156
2632.0,-0.003505418235379484
2636.0,-0.0005541052823768677
2640.0,0.0010216014059895298
2644.0,0.006218194671561953
2648.0,-0.0077125968048482344
2652.0,0.002591701009393237
2656.0,-0.007400054275567292
2660.0,0.015652955160095322
2664.0,-0.005462235120828534
2668.0,0.00021065838789521328
2672.0,-0.006976681036803893
2676.0,-0.04163015974069726
2680.0,-0.07722738218980489
2684.0,-0.11079751560696956
2688.0,-0.15189473858411504
2692.0,0.021974361389131333
2696.0,0.09761653613865184
2700.0,0.18819531534115302
2704.0,0.284780912217912
2708.0,0.39868096885766974
2712.0,0.4992149497827228
2716.0,0.6011852131464122
2720.0,0.6830840064613705
2724.0,0.7790869199921686
2728.0,0.8779370040661825
2732.0,0.9755932886813113
2736.0,0.8869598703732242
2740.0,0.8045732565417313
2744.0,0.7088311698422035
2748.0,0.5849259394930442
2752.0,0.48965826519469335
2756.0,0.3863131630927715
2760.0,0.31654321413256936
2764.0,0.18426981086937672
2768.0,0.08527009142925923
2772.0,-0.0036987879005127102
2776.0,-0.057103929403729665
2780.0,-0.13370974434611982
2784.0,-0.14812178754574656
2788.0,-0.2273720159989296
2792.0,-0.3004465088446505
2796.0,-0.2330912571723873
2800.0,-0.1687546987800347
2804.0,-0.10761806042304267
2808.0,-0.06962863150273423
2812.0,-0.0604807987934624
2816.0,-0.024008799366562684
2820.0,-0.03352794431133909
2824.0,-0.03552779460722118
2828.0,-0.036381230611117574
2832.0,-0.027955856609982913
2836.0,-0.048958913444509054
2840.0,-0.029583767955598275
2844.0,-0.022258670912306575
2848.0,-0.040384806619412864
2852.0,-0.02142453288103128
2856.0,-0.023137112717366334
2860.0,-0.025473714630367142
2864.0,-0.026800556201448552
2868.0,-0.013800226667999065
2872.0,-0.007343986941902808
2876.0,-0.0019806850717571413
2880.0,-0.019435287768523036
2884.0,0.0019778744983338986
2888.0,0.009818705787507473
2892.0,-0.012545829903717158
2896.0,0.014097196553268259
2900.0,0.05207994534295058
2904.0,0.0707774091989675
2908.0,0.08821547969864699
2912.0,0.11373576069396017
2916.0,0.12107261673431247
2920.0,0.1667368161748951
2924.0,0.17055169972429565
2928.0,0.20642306508809205
2932.0,0.20426037101438474
2936.0,0.21550986072252953
2940.0,0.24100913577711475
2944.0,0.2455009210751415
2948.0,0.2553369384749037
2952.0,0.27091141421704745
2956.0,0.29298465118697137
2960.0,0.2703591085046811
2964.0,0.28941094352789565
2968.0,0.2947874655039202
2972.0,0.29692939936327983
2976.0,0.29428906917791925
2980.0,0.2883904977048443
2984.0,0.2935691771400354
2988.0,0.2832909763885058
2992.0,0.2838271984839687
2996.0,0.26662657272204304
3000.0,0.24624261553156154
3004.0,0.229871329490409
3008.0,0.23420731370273667
3012.0,0.2046538231502476
3016.0,0.20088640254670856
3020.0,0.17480720669697755
3024.0,0.16076392316148996
3028.0,0.13192319803426691
3032.0,0.12692120775524673
3036.0,0.10471094127430947
3040.0,0.05885652496703207
3044.0,0.0409707647394431
3048.0,0.016701706558222708
3052.0,0.01160662842034911
3056.0,-0.00315559515868392
3060.0,-0.009277050802501073
3064.0,0.004802144050238261
3068.0,-0.003120815779384488
3072.0,0.002312062591345351
3076.0,0.0007052325424731883
3080.0,-0.010593386361190157
3084.0,-0.012511997992344093
3088.0,0.0024337141533057292
3092.0,-0.0032471724425991643
3096.0,-0.018397974581943387
3100.0,0.005217423979396942
3104.0,0.0019134437784798126
3108.0,0.00435955291256239
3112.0,0.0029858367588006963
3116.0,-0.005251704627064881
3120.0,-0.01493581768806303
3124.0,-0.0041896155287696355
3128.0,0.009902786994361241
3132.0,0.005287424143158397
3136.0,-0.00953495325784006
3140.0,0.012355361155183686
3144.0,0.00965970150361025
3148.0,-0.016313882659272215
3152.0,-0.017129938178543365
3156.0,0.0032103313864361893
3160.0,0.0027698052004117863
3164.0,-0.006945753769695474
3168.0,-0.006541783957172947
3172.0,-0.00452111911533889
3176.0,-0.013792607943617903
3180.0,-0.014428321934973705
3184.0,0.006566818159395055
3188.0,0.006679261187192785
3192.0,-0.016934028355859845
3196.0,0.010177768971715375
3200.0,0.04319856564475462
3204.0,0.05796468612207048
3208.0,0.09300254306645733
3212.0,0.11123580680715191
3216.0,0.1527684838796954
3220.0,0.1736194554364052
3224.0,0.18460911630295088
3228.0,0.22581629956246818
3232.0,0.23329594992472552
3236.0,0.23700804799011155
3240.0,0.24725441558565783
3244.0,0.27801327625967687
3248.0,0.25104377283522233
3252.0,0.23525398718496687
3256.0,0.2493809044396334
3260.0,0.2421521582992643
3264.0,0.223589967367597
3268.0,0.2030805037017648
3272.0,0.1816673327617056
3276.0,0.14446539150481305
3280.0,0.11937215799590709
3284.0,0.09190362593444704
3288.0,0.06391491226123304
3292.0,0.01165072980105368
3296.0,-0.007885027617689175
3300.0,-0.01881000845063043
3304.0,-0.0046348424304888435
3308.0,-0.02067065547994524
3312.0,-0.023553753749995666
3316.0,0.009630498807335186
3320.0,-0.0068707053391854015
3324.0,-0.008492211360833654
3328.0,0.0031707303486924053
3332.0,0.006737032517334507
3336.0,-0.009136140512008555
3340.0,-0.042505036764604515
3344.0,-0.06205502971099454
3348.0,-0.1288861812005433
3352.0,-0.17115043262834312
3356.0,-0.0038339646007294783
3360.0,0.08147324164617965
3364.0,0.19697720353527556
3368.0,0.3076373863969056
3372.0,0.4144664492529366
3376.0,0.5002055990755789
3380.0,0.6065613560655647
3384.0,0.7365545647335894
3388.0,0.8180551930645179
3392.0,0.9315259157297722
3396.0,1.0199829661621427
3400.0,0.9198277077872257
3404.0,0.8120974954386014
3408.0,0.7289064756030916
3412.0,0.6104102077338687
3416.0,0.515471527277563
3420.0,0.42971238524165806
3424.0,0.30823250800851865
3428.0,0.2067295144274568
3432.0,0.10509360282983644
3436.0,-0.02136523054062984
3440.0,-0.0734845590975362
3444.0,-0.1475172394962283
3448.0,-0.17581857718343094
3452.0,-0.2592946325227377
3456.0,-0.3153767421563975
3460.0,-0.23613447919381803
3464.0,-0.18992636722582007
3468.0,-0.1250151619251936
3472.0,-0.07255238739138337
3476.0,-0.06039685185003492
3480.0,-0.04940522189953386
3484.0,-0.04441870615218373
3488.0,-0.04474281175167828
3492.0,-0.01893186348232512
3496.0,-0.04350163711538318
3500.0,-0.030900101780671582
3504.0,-0.030319188945347603
3508.0,-0.03394578255574153
3512.0,-0.020706867668974657
3516.0,-0.0251917097411425
3520.0,-0.01737110444732209
3524.0,-0.008079369611570434
3528.0,-0.023838120645604755
3532.0,-0.02506923443295292
3536.0,-0.033629616023906135
3540.0,-0.012530355773211035
3544.0,-0.022636075262053065
3548.0,-0.008727053657460345
3552.0,-0.0008177103301276307
3556.0,0.012067755180553632
3560.0,0.016718182354025234
3564.0,0.05295304894801712
3568.0,0.07670914323834277
3572.0,0.07394683183160418
3576.0,0.1270155650356948
3580.0,0.1401017956056771
3584.0,0.15208422838681476
3588.0,0.18791325530249317
3592.0,0.1965395679036097
3596.0,0.2289955004224743
3600.0,0.23508233039778423
3604.0,0.24649271779903983
3608.0,0.26650694590520807
3612.0,0.2449829993391994
3616.0,0.2865451230728743
3620.0,0.28962885837537766
3624.0,0.30187601118694135
3628.0,0.31210153372828753
3632.0,0.31294404147714877
3636.0,0.3085920195515317
3640.0,0.32188448149243976
3644.0,0.2872522765208375
3648.0,0.29194475653973856
3652.0,0.29865213133252566
3656.0,0.29526321184672655
3660.0,0.26645027901781854
3664.0,0.26496315806964316
3668.0,0.24932065263599174
3672.0,0.23057856174173882
3676.0,0.2268357230678525
3680.0,0.2167874120427278
3684.0,0.1773075931165872
3688.0,0.15626538264199197
3692.0,0.1341642796092018
3696.0,0.10860478404475603
3700.0,0.09015619462482166
3704.0,0.07925404374008314
3708.0,0.05293374644219077
3712.0,0.03562039045573189
3716.0,-0.015542485624791174
3720.0,-0.002635124609025923
3724.0,-0.0030639207422500916
3728.0,0.010235021057330571
3732.0,-0.007525123039495438
3736.0,-0.012780591566715996
3740.0,-0.005529458682520036
3744.0,-0.0030375028419990947
3748.0,0.011443191368033971
3752.0,-0.011886734539846917
3756.0,-0.012337041031047522
3760.0,0.004661456193676536
3764.0,-0.0004533946165329993
3768.0,0.02682455922494301
3772.0,-0.014309601994973813
3776.0,-0.018889713312628575
3780.0,-0.003198264641343843
3784.0,-0.00715427100202834
3788.0,-0.0012301711596604018
3792.0,-0.012971443377796252
3796.0,0.0036684142414816147
3800.0,0.00042753881362459786
3804.0,-0.010789812894365005
3808.0,-0.006120327303109643
3812.0,-0.01690399750649647
3816.0,-0.0005326964839103396
3820.0,-0.001113655531820907
3824.0,-0.006906967429188541
3828.0,0.005403175323330537
3832.0,-0.0009608772896390907
3836.0,-0.01361961794972827
3840.0,0.00022220353823981215
3844.0,-0.008937024270671836
3848.0,-0.0022974989499054137
3852.0,0.006720530571216679
3856.0,-0.007984864538429426
3860.0,0.004201204854775353
3864.0,0.03362577208470717
3868.0,0.05246814595330407
3872.0,0.09097099712775865
3876.0,0.1279588183455529
3880.0,0.1504479443646072
3884.0,0.19311673974452484
3888.0,0.19670023813656187
3892.0,0.2095504161719126
3896.0,0.23039947687059828
3900.0,0.2665657526858871
3904.0,0.2527580156726204
3908.0,0.2519811963083506
3912.0,0.25229509969291586
3916.0,0.2230871917774822
3920.0,0.2250818366623012
3924.0,0.2178351665590756
3928.0,0.2096164424174719
3932.0,0.21114742768369257
3936.0,0.1704042484390556
3940.0,0.1568855477746123
3944.0,0.11233163752639487
3948.0,0.07769425831983195
3952.0,0.04884518308310326
3956.0,0.034336161885582535
3960.0,0.019710056022137802
3964.0,0.004560424458946874
3968.0,-0.018171373183808445
3972.0,0.0019364181821452749
3976.0,0.012864442950634412
3980.0,-0.0058228334664964555
3984.0,-0.0058552442897391544
3988.0,-0.0045936150930444754
3992.0,0.008020576082681264
3996.0,0.005054069366170632
4000.0,-0.000798167453874486
4004.0,-0.035741425090697804
4008.0,-0.06405151464150241
4012.0,-0.11230961349822464
4016.0,-0.1525132661795469
4020.0,-0.003452832557202583
4024.0,0.08941891010534932
4028.0,0.205141998650142
4032.0,0.3078665041494054
4036.0,0.4085682197623453
4040.0,0.5078939353848662
4044.0,0.5927520458444847
4048.0,0.7073607792092923
4052.0,0.7888999340407482
4056.0,0.8819269075686054
4060.0,1.0162290115917543
4064.0,0.8901812806446191
4068.0,0.7958486166370636
4072.0,0.7022544350378304
4076.0,0.6019308639672442
4080.0,0.49944014767356343
4084.0,0.40283788022413974
4088.0,0.300108191434894
4092.0,0.2074970506166319
4096.0,0.0905489877555014
4100.0,-0.008651900111330758
4104.0,-0.06480569520158871
4108.0,-0.11787298158458431
4112.0,-0.17087170524457324
4116.0,-0.23803360572651341
4120.0,-0.3124990643606231
4124.0,-0.2516049604888757
4128.0,-0.17439480151589842
4132.0,-0.11652982022813854
4136.0,-0.05312450151474917
4140.0,-0.05405035064222144
4144.0,-0.04262347190247496
4148.0,-0.02682127716539757
4152.0,-0.04421422967989399
4156.0,-0.06462984527560126
4160.0,-0.02968983176962329
4164.0,-0.019866701204701114
4168.0,-0.044983532571151466
4172.0,-0.03764061968070518
4176.0,-0.051740088766602854
4180.0,-0.042167262817867736
4184.0,-0.017540134162916197
4188.0,-0.02183708323097657
4192.0,-0.017876547228647045
4196.0,-0.014006997870716692
4200.0,-0.01706330524808287
4204.0,-0.0014219765246891326
4208.0,-0.027669550127225738
4212.0,-0.024247227378775896
4216.0,0.004337009174416309
4220.0,0.02148599024940834
4224.0,0.014474165645842075
4228.0,0.054919891148095645
4232.0,0.06921537550966418
4236.0,0.08597108632505686
4240.0,0.11560251534476026
4244.0,0.1315896817981469
4248.0,0.1635657842869596
4252.0,0.16295938755917003
4256.0,0.20619294062397084
4260.0,0.19639697322705166
4264.0,0.22533360052651666
4268.0,0.2300383364623162
4272.0,0.26781901299363575
4276.0,0.26047797052934
4280.0,0.2578347572361001
4284.0,0.27856122931345745
4288.0,0.3177841086536084
4292.0,0.31133867986325936
4296.0,0.2967325770842779
4300.0,0.28677241700831513
4304.0,0.302588705007056
4308.0,0.3035230807057033
4312.0,0.2928807019738704
4316.0,0.28963611272820006
4320.0,0.2902249585544984
4324.0,0.2637883487105576
4328.0,0.25994315715678407
4332.0,0.2184275797556396
4336.0,0.22055765677184058
4340.0,0.21552532574388117
4344.0,0.18720780920829447
4348.0,0.17823801709527345
4352.0,0.16377309191626938
4356.0,0.1210790031288094
4360.0,0.1376090432862257
4364.0,0.09035874603614404
4368.0,0.07127574513661179
4372.0,0.04126265472315528
4376.0,0.04724281253632394
4380.0,0.013662412502149009
4384.0,-0.014385340337048223
4388.0,0.01563778591872653
4392.0,-0.020640652409858195
4396.0,-0.012891285431464282
4400.0,-0.014879232597313635
4404.0,-0.01745040569197764
4408.0,-0.006181983438484175
4412.0,0.011528621282791288
4416.0,-0.007524004681473331
4420.0,0.0033669044528111852
4424.0,0.0161083471824767
4428.0,-0.013644683755483816
4432.0,0.011565429367927847
4436.0,0.02264446254877845
4440.0,-0.002327530731567966
4444.0,-0.007919880979143156
4448.0,-0.0008572118161355386
4452.0,-0.010012306458724585
4456.0,-0.010655414131237877
4460.0,-0.013096709224291016
4464.0,-0.004179282427524598
4468.0,0.00978834157654095
4472.0,-0.006822818880169743
4476.0,-0.0021139804557774398
4480.0,0.01813650100714423
4484.0,0.002707593958667473
4488.0,0.014181435643670559
4492.0,-0.004315265072038651
4496.0,0.007372798014225746
4500.0,0.006313048440497309
4504.0,0.003721597761724143
4508.0,-0.00846264986157784
4512.0,0.017538356132861355
4516.0,0.009847454835086497
4520.0,0.010531407350161172
4524.0,-0.003870739549427804
4528.0,0.03723931438371861
4532.0,0.05805125264371529
4536.0,0.08736676793278313
4540.0,0.12026407779159816
4544.0,0.15061390083561954
4548.0,0.1794366968102632
4552.0,0.202061392460237
4556.0,0.23638040974550814
4560.0,0.24016250812056592
4564.0,0.25927004010373494
4568.0,0.25550927692003667
4572.0,0.25548601144999233
4576.0,0.27475412851577624
4580.0,0.2532844761869836
4584.0,0.23642700377316997
4588.0,0.23304788745385177
4592.0,0.22216124076014482
4596.0,0.22407861253164466
4600.0,0.1781847919009522
4604.0,0.16559164157089917
4608.0,0.12359650645402372
4612.0,0.09203539464506791
4616.0,0.051510995274145314
4620.0,0.024427213942118692
4624.0,0.02134109963862773
4628.0,0.026242196518178235
4632.0,0.006805927549309647
4636.0,0.006508964961292214
4640.0,-0.007067805800123169
4644.0,-0.008364886956995936
4648.0,-0.00941502243142617
4652.0,0.001289596752582785
4656.0,0.006923633226059808
4660.0,0.0030503937112050343
4664.0,-0.026402201002537373
4668.0,-0.04322863516555208
4672.0,-0.08028372464309226
4676.0,-0.11827001484135224
4680.0,-0.1582866806906094
4684.0,0.0045015599910113654
4688.0,0.09758605624735484
4692.0,0.1886440990624927
4696.0,0.32305977389088336
4700.0,0.41587104497502064
4704.0,0.4947311022769639
4708.0,0.6322393924547918
4712.0,0.7285174837127799
4716.0,0.8425022397125613
4720.0,0.9368150584399515
4724.0,1.0483747565941708
4728.0,0.9321775358207512
4732.0,0.8321064905055097
4736.0,0.7454831516448329
4740.0,0.6341813449811522
4744.0,0.5312801531628826
4748.0,0.4356631471707618
4752.0,0.31571786800754625
4756.0,0.19818535900103443
4760.0,0.11216888649606468
4764.0,0.008760471330000012
4768.0,-0.07352128798191765
4772.0,-0.13743360421926779
4776.0,-0.17994903362022344
4780.0,-0.2566677191440949
4784.0,-0.3385059105799693
4788.0,-0.2428199784854544
4792.0,-0.16620317013611152
4796.0,-0.13723796951792422
4800.0,-0.06217906679624807
4804.0,-0.045446790069856545
4808.0,-0.04038124161254918
4812.0,-0.06227610020555173
4816.0,-0.051406525056650394
4820.0,-0.057339341567331004
4824.0,-0.04491364844447926
4828.0,-0.03783578653918964
4832.0,-0.018766925808995055
4836.0,-0.022267095983831912
4840.0,-0.03137191924433396
4844.0,-0.02126209345871631
4848.0,-0.0203185634863117
4852.0,-0.01621898795819217
4856.0,-0.026205184356032488
4860.0,-0.006352763661840963
4864.0,0.0016061911389198096
4868.0,0.0028515773748974387
4872.0,-0.004335046150461534
4876.0,-0.01671236268972042
4880.0,-0.015272234502179849
4884.0,0.0036972301148785725
4888.0,0.027562698772867593
4892.0,0.06760146384320755
4896.0,0.04906826284275393
4900.0,0.08676853631535147
4904.0,0.1293622766495295
4908.0,0.12976927639679536
4912.0,0.1718109354465706
4916.0,0.1930596269408566
4920.0,0.21150280653545384
4924.0,0.2144995796262114
4928.0,0.226017924959301
4932.0,0.2614591481822474
4936.0,0.28140092595103866
4940.0,0.29934145881175106
4944.0,0.2847350871026087
4948.0,0.31178919385174286
4952.0,0.3096643428412773
4956.0,0.30259760733927277
4960.0,0.3046533959042102
4964.0,0.31289751110148284
4968.0,0.3102119052400769
4972.0,0.31384730844574915
4976.0,0.3113302678277188
4980.0,0.32650500246659964
4984.0,0.27853872961424864
4988.0,0.2957788466351925
4992.0,0.2729339150317298
4996.0,0.23596387887305517
5000.0,0.2114172606158376
5004.0,0.22393575538368093
5008.0,0.22270471918027593
5012.0,0.18526067031459745
5016.0,0.15249115256161455
5020.0,0.1556388744339363
5024.0,0.111706793197542
5028.0,0.1043422197102629
5032.0,0.07082071964690714
5036.0,0.05532237690936613
5040.0,0.027457825653573315
5044.0,-0.0011457131490713488
5048.0,0.015467961260449612
5052.0,0.005806435606932472
5056.0,0.01936458266741306
5060.0,0.0057988283633056146
5064.0,0.006098557107068862
5068.0,0.0005670110256999845
5072.0,0.002611741184281841
5076.0,-0.020225787542349268
5080.0,0.013259476763294316
5084.0,0.0007806346171816646
5088.0,-0.003745936419244472
5092.0,-0.0002552541615755028
5096.0,0.009512285531436763
5100.0,0.017503542279485602
5104.0,-0.00048469340839991563
5108.0,-0.020482634518948037
5112.0,-0.005307338314098527
5116.0,-0.010279081071771093
5120.0,-0.0064727988369708825
5124.0,0.0014684513887100081
5128.0,0.014438259704364749
5132.0,0.0048653360141269735
5136.0,-0.014212123553448178
5140.0,0.021457614213866667
5144.0,-0.0035839396347120567
5148.0,0.00449262081153492
5152.0,0.00012621961723715714
5156.0,0.004768530882625058
5160.0,-0.008479063237674684
5164.0,0.003524647250299263
5168.0,0.011599416675277625
5172.0,-0.0035524245858770493
5176.0,0.010895490701626492
5180.0,-0.018182627864851697
5184.0,0.01162349381768883
5188.0,-0.009624985861436825
5192.0,0.0332634201546059
5196.0,0.06866993256076903
5200.0,0.09379800396932315
5204.0,0.1287475117632202
5208.0,0.15601631894274867
5212.0,0.17338687804278205
5216.0,0.21073666184469045
5220.0,0.21295495566889597
5224.0,0.2277621955787265
5228.0,0.23979771633569139
5232.0,0.259942158468065
5236.0,0.25701858837381986
5240.0,0.2610036429568892
5244.0,0.2510961414708287
5248.0,0.2431167573482535
5252.0,0.23634775999330568
5256.0,0.21966088491598912
5260.0,0.19932681100653016
5264.0,0.19882123318121783
5268.0,0.1595858137552226
5272.0,0.12389371705145222
5276.0,0.09421086918515427
5280.0,0.06219540230049772
5284.0,0.04456559346558159
5288.0,0.010344257757747175
5292.0,-0.017202746415072016
5296.0,-0.00016181883245102463
5300.0,0.003260597620536852
5304.0,0.005005244833896314
5308.0,0.0007824252895128369
5312.0,-0.0006029556224117419
5316.0,0.007795434282283675
5320.0,-0.013535604144286376
5324.0,-0.0016267825637883695
5328.0,-0.00031635597636758237
5332.0,-0.03296704222989087
5336.0,-0.09260991049565846
5340.0,-0.12069865711605422
5344.0,-0.16211034825303003
5348.0,0.006418790509254248
5352.0,0.07673959594147473
5356.0,0.2129753358934282
5360.0,0.3155375667751863
5364.0,0.4236253050865188
5368.0,0.5121999962520447
5372.0,0.617338893082625
5376.0,0.7350171307904796
5380.0,0.8358786635698991
5384.0,0.9196599787406283
5388.0,1.0565098625171605
5392.0,0.9231483461393629
5396.0,0.8257682912352484
5400.0,0.7125030959577037
5404.0,0.6059748126665425
5408.0,0.5171285639419024
5412.0,0.4085283243748732
5416.0,0.34065992794719613
5420.0,0.2312414267267176
5424.0,0.10539619061309585
5428.0,0.0023124088321409444
5432.0,-0.07551236128849802
5436.0,-0.11401931736554215
5440.0,-0.190355281064897
5444.0,-0.26077049270989017
5448.0,-0.3156305819376711
5452.0,-0.25549378845544113
5456.0,-0.18608066120223019
5460.0,-0.11892653008927155
5464.0,-0.04627736888526503
5468.0,-0.06469981480250409
5472.0,-0.049377795314788725
5476.0,-0.04663475854620883
5480.0,-0.045872714479069585
5484.0,-0.04218782617996915
5488.0,-0.052764285045471315
5492.0,-0.05307327934674073
5496.0,-0.027398005930174284
5500.0,-0.03148584492371608
5504.0,-0.04060470888859746
5508.0,-0.033936515876702066
5512.0,-0.01025607078787136
5516.0,-0.024377250344792836
5520.0,-0.037231409154077896
5524.0,-0.007663530874709548
5528.0,-0.008015306987396494
5532.0,0.0016635395371884468
5536.0,-0.01421205959906846
5540.0,-0.012463568499164373
5544.0,-0.025268037282807635
5548.0,-0.014805860129897016
5552.0,0.014109673264520348
5556.0,0.04329667121154608
5560.0,0.08748941930326437
5564.0,0.10738578198094709
5568.0,0.1185489745817744
5572.0,0.13660669276393514
5576.0,0.15802615643574486
5580.0,0.17328231951115347
5584.0,0.19247465458023946
5588.0,0.2057981664161765
5592.0,0.2371861206890156
5596.0,0.23916395011762515
5600.0,0.2910975090821317
5604.0,0.28026127154706665
5608.0,0.2817126864354031
5612.0,0.29852085960667263
5616.0,0.2974950450151131
5620.0,0.3097263692180403
5624.0,0.30478302414293357
5628.0,0.3221917000291401
5632.0,0.29581216583248976
5636.0,0.3204291507865505
5640.0,0.2961619207456981
5644.0,0.2965663748065407
5648.0,0.27590048236093584
5652.0,0.26074911518369653
5656.0,0.27269441604565187
5660.0,0.25764602068632486
5664.0,0.23717408509950036
5668.0,0.21544661563213494
5672.0,0.20298121200332137
5676.0,0.18134463737193954
5680.0,0.13111542470207121
5684.0,0.12324618798143629
5688.0,0.11426143066588368
5692.0,0.07375498786786919
5696.0,0.07182279662894644
5700.0,0.048590199572860995
5704.0,0.013416974682750762
5708.0,0.004481973920212117
5712.0,-0.0010659800329533263
5716.0,-0.0008879420153117294
5720.0,-0.0014588684480734049
5724.0,-0.00648881247719145
5728.0,-0.009517063216908365
5732.0,-0.00547165793220856
5736.0,0.02008598893531328
5740.0,0.003942472952380411
5744.0,0.0036596535860139124
5748.0,-0.011773672367079673
5752.0,0.013162838844157069
5756.0,0.0024543760973293987
5760.0,-0.015269382112415724
5764.0,-0.03148348103132869
5768.0,-0.022280340659796796
5772.0,-0.0055366997226675395
5776.0,0.0018590952684744112
5780.0,0.0007193346411327477
5784.0,0.004434250898137897
5788.0,-0.008878012470917383
5792.0,0.009838797151776353
5796.0,-0.020501155243897357
5800.0,0.004808287752182377
5804.0,-0.001660298100482333
5808.0,0.004200023874642485
5812.0,0.00041846875897595865
5816.0,-0.009524354291593482
5820.0,0.01897859683157418
5824.0,0.00489078151162209
5828.0,0.007563806258086575
5832.0,0.011428336609010893
5836.0,-0.012418601830427334
5840.0,-0.004107076635706024
5844.0,-0.018496151619083495
5848.0,0.017009707249659882
5852.0,0.008856174411058819
5856.0,0.049363226869837296
5860.0,0.06372910439269273
5864.0,0.09216984045721342
5868.0,0.11614311553692173
5872.0,0.1552009401612113
5876.0,0.19222969639457452
5880.0,0.19415666063493686
5884.0,0.20941949419536543
5888.0,0.2452705459630695
5892.0,0.24968580578965957
5896.0,0.2794742371350888
5900.0,0.2442042459165275
5904.0,0.24828393444786157
5908.0,0.2650715943657827
5912.0,0.25314851326785176
5916.0,0.24037501380473011
5920.0,0.2341539704120047
5924.0,0.1972878216703154
5928.0,0.18344326247515527
5932.0,0.15342047524172564
5936.0,0.12015493038008171
5940.0,0.08964275529601592
5944.0,0.07328967890039233
5948.0,0.0454354569630655
5952.0,-0.009429123734886784
5956.0,-0.0019542464600562632
5960.0,0.006519593328596393
5964.0,-0.009527115827341654
5968.0,-0.01707069747917991
5972.0,0.02269441896982382
5976.0,-0.005025611823331384
5980.0,-0.0005712101206300478
5984.0,0.0013506422467040795
5988.0,-0.0021178257187609377
5992.0,0.001568047140120887
5996.0,-0.03557650037906246
6000.0,-0.08407014595921736
6004.0,-0.11621615710499028
6008.0,-0.16791453080177743
6012.0,0.0009290844985147508
6016.0,0.09887263361499336
6020.0,0.2194096740135911
6024.0,0.31126569918900965
6028.0,0.41125848830519635
6032.0,0.5242372391513781
6036.0,0.6139560133384803
6040.0,0.7359772834177591
6044.0,0.8174077388571881
6048.0,0.9278401182561775
6052.0,1.0267933858669267
6056.0,0.9284749017120907
6060.0,0.8349734085085168
6064.0,0.7348830207428565
6068.0,0.6288933899279296
6072.0,0.5037745001402959
6076.0,0.4434263839202382
6080.0,0.31154069983929983
6084.0,0.2232810909287754
6088.0,0.09534999540452514
6092.0,-0.001416146835356415
6096.0,-0.05672735719150792
6100.0,-0.1254605378646132
6104.0,-0.1786462504820383
6108.0,-0.2545785753865299
6112.0,-0.3074867791927038
6116.0,-0.2319954421185201
6120.0,-0.2073205596908669
6124.0,-0.12134245722140659
6128.0,-0.07408810674773078
6132.0,-0.05521508006610893
6136.0,-0.052847480210659756
6140.0,-0.04963864622432714
6144.0,-0.029602287594432498
6148.0,-0.021291549165719004
6152.0,-0.0457182077539485
6156.0,-0.04269099123288642
6160.0,-0.01897398296372925
6164.0,-0.02361736672653234
6168.0,-0.015412375095612779
6172.0,-0.019347503842569343
6176.0,-0.02348287019488558
6180.0,-0.01781897273527954
6184.0,-0.016330139194261184
6188.0,-0.014704980888416744
6192.0,-0.0282811046222851
6196.0,-0.012445623015619595
6200.0,0.001324420586231786
6204.0,-0.01929998351467695
6208.0,-0.007726212937069469
6212.0,0.017896751062004355
6216.0,0.02643071849935146
6220.0,0.038654002847541016
6224.0,0.08078123442689507
6228.0,0.10982159178477771
6232.0,0.1207410801824125
6236.0,0.14475348147762304
6240.0,0.15067159260383375
6244.0,0.16883955798288536
6248.0,0.2121369666700207
6252.0,0.21691846738371107
6256.0,0.22958399623327116
6260.0,0.2508400078728581
6264.0,0.2617664224966744
6268.0,0.2503126489325304
6272.0,0.2989431165200131
6276.0,0.299449680651285
6280.0,0.30691129384099947
6284.0,0.31626221210215016
6288.0,0.30698728235277495
6292.0,0.3049768044604721
6296.0,0.30430963076150463
6300.0,0.2970339023742178
6304.0,0.30226827709920007
6308.0,0.2907454366622275
6312.0,0.2865315548984082
6316.0,0.2627341949628774
6320.0,0.2679275852841991
6324.0,0.25952237589744076
6328.0,0.22094431340476864
6332.0,0.22002476372330373
6336.0,0.19127485957874793
6340.0,0.17699018477708103
6344.0,0.16772775529607512
6348.0,0.1269507103630786
6352.0,0.11900587702164664
6356.0,0.09179581275282117
6360.0,0.07278050400286352
6364.0,0.0390588365465112
6368.0,0.026959602740677397
6372.0,0.01575886873578926
6376.0,-0.007536582735116041
6380.0,-0.013442092876498142
6384.0,-0.008091051130494168
6388.0,-0.0065363136477121385
6392.0,0.004689224561174757
6396.0,0.0078026160238960345
6400.0,0.0001226899720958261
6404.0,0.014069607614619577
6408.0,-0.0013786969399440328
6412.0,0.0018535009346957645
6416.0,0.0013749192224212859
6420.0,-0.007390027726150913
6424.0,-0.0010151552405865026
6428.0,0.007529829672656085
6432.0,-0.0018026122354611982
6436.0,-0.015553085717698818
6440.0,0.005135824951214047
6444.0,0.007758956630457221
6448.0,0.0062585466389957715
6452.0,-0.004144253811428651
6456.0,0.0042637538968319086
6460.0,0.0002029596010885266
6464.0,-5.909595380876863e-05
6468.0,-0.0009561918606861368
6472.0,-0.02333594543413743
6476.0,-0.006062277769977492
6480.0,-0.00011223668339397752
6484.0,0.008429346589427936
6488.0,0.0036139382587522108
6492.0,-0.011162515679775583
6496.0,-0.005930266966049703
6500.0,-3.766482312603059e-05
6504.0,0.006260055742989076
6508.0,0.012948919875738332
6512.0,-0.0014674375658178408
6516.0,-0.013315636977300368
6520.0,0.041742096631732395
6524.0,0.05760555706364017
6528.0,0.09779051955135724
6532.0,0.12044195390784496
6536.0,0.15486722779278356
6540.0,0.16285237529743668
6544.0,0.19779169498847818
6548.0,0.20913646187991397
6552.0,0.2251083874683551
6556.0,0.2225974018009694
6560.0,0.24131034673986634
6564.0,0.24249773271023073
6568.0,0.23237614066067003
6572.0,0.22999104477007767
6576.0,0.2422331811983661
6580.0,0.22769235734515136
6584.0,0.21812959311399752
6588.0,0.19175906154254463
6592.0,0.15680916895562538
6596.0,0.15975804270975075
6600.0,0.09184186273435628
6604.0,0.09609888472798803
6608.0,0.06636789076210316
6612.0,0.03610135658232609
6616.0,-0.009374390865345798
6620.0,-0.0001572362388830475
6624.0,0.0020975011376013104
6628.0,0.019805809295009805
6632.0,-0.0023900190377462442
6636.0,-0.017213203654581583
6640.0,-0.002756537497293324
6644.0,-0.009327229309094945
6648.0,-0.0018781079447737503
6652.0,0.0014459528801549254
6656.0,0.014424190319513804
6660.0,-0.024128649926973604
6664.0,-0.07178821538327576
6668.0,-0.1345834878629642
6672.0,-0.15922890113686988
6676.0,-0.016203066631925354
6680.0,0.11792385974850203
6684.0,0.20073283748362222
6688.0,0.3054628179403824
6692.0,0.3996591499746877
6696.0,0.4856662526045073
6700.0,0.5938309919175396
6704.0,0.6868118554557348
6708.0,0.7969079485567652
6712.0,0.8858831123763528
6716.0,0.9772702949718595
6720.0,0.914544843537443
6724.0,0.788373881355136
6728.0,0.68694463792958
6732.0,0.5968033454489083
6736.0,0.49138693744463074
6740.0,0.3925457304976632
6744.0,0.2821952071894411
6748.0,0.1992243898902216
6752.0,0.11314990885142331
6756.0,0.005859259612373101
6760.0,-0.056101591109996116
6764.0,-0.12833228247983675
6768.0,-0.18217405100722173
6772.0,-0.2179592548259694
6776.0,-0.2952756894400528
6780.0,-0.24832610151772086
6784.0,-0.1754418604756088
6788.0,-0.11882485261486357
6792.0,-0.06553458423316892
6796.0,-0.04311364272313742
6800.0,-0.04834209154817631
6804.0,-0.03665413665514968
6808.0,-0.04718784433269397
6812.0,-0.048886670242622866
6816.0,-0.058183695840015856
6820.0,-0.03938681831732851
6824.0,-0.02279756277613664
6828.0,-0.0460844382570004
6832.0,-0.03578459661256937
6836.0,-0.028022112740847496
6840.0,-0.014276746993181596
6844.0,-0.01158749288815276
6848.0,-0.008767351780575984
6852.0,-0.03193629891004639
6856.0,-0.0023965419179673274
6860.0,-0.013075053329936331
6864.0,-0.00015118170589386182
6868.0,0.010684102903038206
6872.0,0.00470529068479454
6876.0,-0.015365657009818706
6880.0,0.014932688298170708
6884.0,0.046828294100853235
6888.0,0.058655467784352586
6892.0,0.08150930043694786
6896.0,0.11122673137787614
6900.0,0.14410613342367437
6904.0,0.14693208969200547
6908.0,0.19021726517725085
6912.0,0.1937661140298859
6916.0,0.20134143795255463
6920.0,0.22152008115523825
6924.0,0.23863761240746717
6928.0,0.26424531791439076
6932.0,0.2609884396558692
6936.0,0.2873273681088418
6940.0,0.2743582087593261
6944.0,0.2768023325835825
6948.0,0.29033071509123465
6952.0,0.29939313320040084
6956.0,0.3012954164434867
6960.0,0.3130337633469969
6964.0,0.3056369140580636
6968.0,0.2890905552472789
6972.0,0.26670604172318507
6976.0,0.271059882539563
6980.0,0.25899490564956984
6984.0,0.2515636110188487
6988.0,0.23167493728626667
6992.0,0.21076262342580926
6996.0,0.2142845864072731
7000.0,0.19063736478400084
7004.0,0.1748853558823591
7008.0,0.15995342870516555
7012.0,0.12170967933393848
7016.0,0.12129270866655768
7020.0,0.09270778927937888
7024.0,0.06189205798056761
7028.0,0.04957908101790791
7032.0,0.021381708526522086
7036.0,-0.011974803083273736
7040.0,-0.014732880124220075
7044.0,-0.006859079895036698
7048.0,-0.005870068105115544
7052.0,-0.00356733923000025
7056.0,-0.00037438410262431075
7060.0,0.01575084776713719
7064.0,0.009655188062331736
7068.0,0.007417779324847911
7072.0,-0.0011943943311122326
7076.0,0.0011659602466972299
7080.0,-0.007147088773640067
7084.0,0.0015442915068258583
7088.0,0.007525738408942367
7092.0,0.020139694382458512
7096.0,0.0015915541656421632
7100.0,0.005892539256057913
7104.0,-0.004861578024937143
7108.0,-0.007631600579187687
7112.0,0.0005578051522115795
7116.0,0.0035011148674739187
7120.0,0.006075929566185287
7124.0,0.0020662473295493607
7128.0,0.0045023211069884295
7132.0,-0.004481783426916603
7136.0,-0.020517692942718588
7140.0,0.009001492021024786
7144.0,0.0017993398389027418
7148.0,-0.0034146332532306927
7152.0,0.005154553556119438
7156.0,-0.018799511356008883
7160.0,-0.01468212980582526
7164.0,-0.012949804593962985
7168.0,-0.002219755154935606
7172.0,0.001198851831181829
7176.0,-0.0022906192896395452
7180.0,0.001316978991944354
7184.0,0.03458365526119746
7188.0,0.07361924244075312
7192.0,0.0945382413771385
7196.0,0.14235879319770778
7200.0,0.13332356253893055
7204.0,0.17817758614708484
7208.0,0.20382665465197644
7212.0,0.23122453499445078
7216.0,0.24281420596817352
7220.0,0.2491545642758031
7224.0,0.2510652883903332
7228.0,0.2582764025249981
7232.0,0.2675099236358043
7236.0,0.24542896524245544
7240.0,0.2598435535053508
7244.0,0.2283121480898398
7248.0,0.22128819705984637
7252.0,0.19730782029584568
7256.0,0.17807281414694992
7260.0,0.16568179949192463
7264.0,0.1238861622001635
7268.0,0.0908809767398258
7272.0,0.04868653233065009
7276.0,0.022189735035360026
7280.0,-0.010099122299218959
7284.0,0.0014903496760297922
7288.0,0.003740116461731444
7292.0,0.0016348786005595348
7296.0,-0.010826262728391592
7300.0,-0.00957307131133814
7304.0,0.00734219996757799
7308.0,-0.005270745575023038
7312.0,-0.0012461938468587327
7316.0,-0.011884445618496296
7320.0,0.01376270480809926
7324.0,-0.04330855242136188
7328.0,-0.0761429632934932
7332.0,-0.11638917340484695
7336.0,-0.15281228165110952
7340.0,-0.00024881806122482376
7344.0,0.10379250076874667
7348.0,0.22379777098786838
7352.0,0.3210369128173439
7356.0,0.41476207801081183
7360.0,0.5200188063106471
7364.0,0.6142793989508369
7368.0,0.6988330737840969
7372.0,0.8219050718170466
7376.0,0.9260539646352418
7380.0,1.0327333434131478
7384.0,0.9364968652218723
7388.0,0.8237750728744982
7392.0,0.7083811117036675
7396.0,0.6202487734338312
7400.0,0.5304364608999352
7404.0,0.40369535841815407
7408.0,0.30641846399169015
7412.0,0.1989308489022826
7416.0,0.1037599319182872
7420.0,-0.0042605003881521965
7424.0,-0.049886369415909376
7428.0,-0.10570923771780533
7432.0,-0.18284738032201028
7436.0,-0.25331000607143456
7440.0,-0.30730672144853
7444.0,-0.2536340835249876
7448.0,-0.17053113458109667
7452.0,-0.15036916868369846
7456.0,-0.05799547422165269
7460.0,-0.058364369870632274
7464.0,-0.04592316335396819
7468.0,-0.028787050980669943
7472.0,-0.040405393452255425
7476.0,-0.039226158025249855
7480.0,-0.032254398314347135
7484.0,-0.02736343142919438
7488.0,-0.037936060394594566
7492.0,-0.030413763878233305
7496.0,-0.03199072472392839
7500.0,-0.028296148165023287
7504.0,-0.03021742618729624
7508.0,-0.025410154439609454
7512.0,0.0004917854774942089
7516.0,-0.022321470694875133
7520.0,-0.016134213521967814
7524.0,-0.010656529632983537
7528.0,-0.004692649353840256
7532.0,0.0026378093125075013
7536.0,0.0185432043277172
7540.0,0.004261648053131067
7544.0,0.02604949208793368
7548.0,0.04176283449300318
7552.0,0.06455953099360302
7556.0,0.09463747707679007
7560.0,0.10792148865801798
7564.0,0.13947954921915817
7568.0,0.15824311931582183
7572.0,0.18881539968444983
7576.0,0.2016088304125658
7580.0,0.235065368987174
7584.0,0.24655298705213638
7588.0,0.27065536005610996
7592.0,0.2702182666827825
7596.0,0.27159588760020126
7600.0,0.27530216279281355
7604.0,0.2677873172785395
7608.0,0.3048381783429941
7612.0,0.304306402986523
7616.0,0.2899774470998003
7620.0,0.33431333561537896
7624.0,0.30583323891774333
7628.0,0.3113430003630284
7632.0,0.3025932159852556
7636.0,0.2943347892373813
7640.0,0.26911656966852754
7644.0,0.2733584363353302
7648.0,0.2617929775340519
7652.0,0.2599583403076829
7656.0,0.23592042488458154
7660.0,0.20792791139939396
7664.0,0.19827068996728622
7668.0,0.183868826876942
7672.0,0.17023805234102177
7676.0,0.1369344426000753
7680.0,0.11261065578284543
7684.0,0.08042224636727714
7688.0,0.07571639909336844
7692.0,0.051928032833596954
7696.0,0.013843024485659963
7700.0,-0.001884948208491978
7704.0,0.012376481022869364
7708.0,0.0019598025035959966
7712.0,0.013197459172287746
7716.0,0.009810812785176282
7720.0,0.004500234712461524
7724.0,0.01906374741574591
7728.0,0.010734137103414169
7732.0,-0.008708812449467756
7736.0,-0.0011233693273115404
7740.0,-0.005935717483478458
7744.0,0.0072442780723690784
7748.0,0.011705340291549585
7752.0,-0.008872190908404779
7756.0,-0.0011002069208628537
7760.0,-0.00027245667924450176
7764.0,0.009469491050961136
7768.0,-0.0017466257945895998
7772.0,-0.005338683735496543
7776.0,0.009395773664765926
7780.0,-0.0033887356608589014
7784.0,-0.0039303363541687356
7788.0,0.01184469850645971
7792.0,-0.01221159825373709
7796.0,0.014305372324924511
7800.0,0.003287890113327632
7804.0,-0.024671837962225912
7808.0,-0.005503760245358182
7812.0,-0.024475859122264246
7816.0,0.005299861686010122
7820.0,-0.02418424882982909
7824.0,0.0004490843697165374
7828.0,-0.0049354890399527515
7832.0,0.008523967254017786
7836.0,0.002094479276326967
7840.0,0.020723030493419645
7844.0,0.009719136126303447
7848.0,0.05291090307938885
7852.0,0.04162815661419819
7856.0,0.10158139940444083
7860.0,0.11959732225449611
7864.0,0.14617152519691817
7868.0,0.18528613556377374
7872.0,0.20165447194198854
7876.0,0.20451680462244964
7880.0,0.22209716164225413
7884.0,0.24437566861319418
7888.0,0.25504892998368534
7892.0,0.23666138564813727
7896.0,0.25866563854574864
7900.0,0.23444705015408412
7904.0,0.24051585155926672
7908.0,0.22508305742411877
7912.0,0.2283706406092555
7916.0,0.1911125387446794
7920.0,0.16650592071041995
7924.0,0.15313125919147394
7928.0,0.12253184451542803
7932.0,0.07378473931043208
7936.0,0.06401962633049874
7940.0,0.04829475808415627
7944.0,0.018066462651483702
7948.0,0.0019028971176566932
7952.0,0.0014729702050811345
7956.0,-2.0257526960811946e-07
7960.0,-0.006882000294825772
7964.0,0.010966138438439528
7968.0,0.0028436220520398113
7972.0,-0.001422622026704973
7976.0,-0.0012533905917290805
7980.0,-0.0035430319773260355
7984.0,-0.009427164771110386
7988.0,-0.055410353408225324
7992.0,-0.0831143742599292
7996.0,-0.11593877922044807
8000.0,-0.17851705450526317
8004.0,-0.016608316599977177
8008.0,0.10453748442410302
8012.0,0.20919002682621665
8016.0,0.3021827589991611
8020.0,0.39538157643411836
8024.0,0.5170409459538499
8028.0,0.6174433979995068
8032.0,0.7213772519072884
8036.0,0.8292470145634646
8040.0,0.9185705781613497
8044.0,1.0393575464751288
8048.0,0.9411843479571739
8052.0,0.8251315205961754
8056.0,0.7092551111991157
8060.0,0.6150511654742676
8064.0,0.5139363133009834
8068.0,0.40007652268165167
8072.0,0.30744634007662386
8076.0,0.19341571750009875
8080.0,0.08572603353493008
8084.0,0.012514508686669814
8088.0,-0.05116660679156374
8092.0,-0.10654474032337308
8096.0,-0.18426093882450714
8100.0,-0.23293077791072547
8104.0,-0.3039918655228498
8108.0,-0.24459910788982592
8112.0,-0.16945928864858262
8116.0,-0.1289557657509642
8120.0,-0.05003899236805817
8124.0,-0.0569254979460931
8128.0,-0.0719376070144976
8132.0,-0.06255239774490819
8136.0,-0.04598862568608954
8140.0,-0.04721086654594317
8144.0,-0.022515638158956467
8148.0,-0.034564536912906604
8152.0,-0.01929279525087415
8156.0,-0.02111482915857351
8160.0,-0.025493867126653882
8164.0,-0.0371163203873094
8168.0,-0.01164622407469505
8172.0,-0.006945613248739584
8176.0,-0.021050837969096688
8180.0,-0.013622754343718693
8184.0,-0.02091334710060612
8188.0,-0.014589618968888857
8192.0,-0.00340032386699127
8196.0,-0.0004216330517084529
8200.0,0.009126240530825298
8204.0,0.00033680180218132827
8208.0,0.022170936442820543
8212.0,0.04030367974263313
8216.0,0.06324383484280378
8220.0,0.06431436835500376
8224.0,0.12288211198338145
8228.0,0.14404498628122359
8232.0,0.16436590816839414
8236.0,0.18217787127612445
8240.0,0.1907834686618659
8244.0,0.22614310633948628
8248.0,0.23235758796791986
8252.0,0.23897599031336758
8256.0,0.26307742098207565
8260.0,0.26391170540442077
8264.0,0.2791458738259676
8268.0,0.28975065070868955
8272.0,0.2942198897228557
8276.0,0.3091045181837512
8280.0,0.2983682323214867
8284.0,0.29249046699939557
8288.0,0.307043812255567
8292.0,0.2887546207866443
8296.0,0.29441186725865987
8300.0,0.28224921103175793
8304.0,0.28670911528874965
8308.0,0.2597971294443831
8312.0,0.25471951817345406
8316.0,0.22798813683221494
8320.0,0.2181224224752155
8324.0,0.20948505132170883
8328.0,0.19085797675368385
8332.0,0.1886628859863342
8336.0,0.1764220802234772
8340.0,0.13945923344275782
8344.0,0.11913774527728242
8348.0,0.08725437921794772
8352.0,0.06684045080115916
8356.0,0.04836514953633027
8360.0,0.007388392973739572
8364.0,-0.011849762863622753
8368.0,0.0008112903744582212
8372.0,0.0009013191619254421
8376.0,-0.0115339628671207
8380.0,-0.008409896554502368
8384.0,-0.0025620699845409385
8388.0,0.005869674520524634
8392.0,-0.000657709651071269
8396.0,-0.008461114151521693
8400.0,0.006102047847992553
8404.0,0.0314003550595642
8408.0,0.0011331715552791784
8412.0,-0.014437439937635629
8416.0,-0.013698267216110779
8420.0,0.002899102785993424
8424.0,-0.004954237156928535
8428.0,-0.014598108441085977
8432.0,-0.00897292268278936
8436.0,-0.014691331347539582
8440.0,0.007353999910416889
8444.0,0.008170840958756738
8448.0,-0.0007006184415523949
8452.0,-0.011834100450274847
8456.0,-0.0019549827732855503
8460.0,0.0022663303773125475
8464.0,0.010827771983643639
8468.0,0.014826726200534237
8472.0,-0.003205235633895442
8476.0,-0.005134029755804705
8480.0,0.008963522885166775
8484.0,0.0134583482192729
8488.0,-0.006877604006334431
8492.0,0.00509319730795212
8496.0,0.014552924193329693
8500.0,0.00352087099903504
8504.0,0.017117211213045696
8508.0,0.0035886476480454363
8512.0,0.011507627991912336
8516.0,0.05487366072156694
8520.0,0.08792020139273532
8524.0,0.14424907895731734
8528.0,0.1617040896883695
8532.0,0.18783634006287395
8536.0,0.20155685853763938
8540.0,0.2130673180570698
8544.0,0.2204262740842482
8548.0,0.23303037024051382
8552.0,0.25748158734255705
8556.0,0.2587775286647303
8560.0,0.25224405948746853
8564.0,0.2672056759892822
8568.0,0.23451893308889157
8572.0,0.25524178426924926
8576.0,0.22467084030911844
8580.0,0.2077704337046449
8584.0,0.17978777414569164
8588.0,0.13356823383779493
8592.0,0.09714486417294713
8596.0,0.1017652285760133
8600.0,0.07717550920743584
8604.0,0.03093454031126774
8608.0,-0.015212641520682373
8612.0,-0.02028668386872805
8616.0,0.003109097729354242
8620.0,0.009160086446590079
8624.0,-0.0033734853487292107
8628.0,0.009990602495129515
8632.0,-0.019648772080666607
8636.0,-0.00309323223676897
8640.0,0.007753918717562227
8644.0,-8.748591368649737e-05
8648.0,0.016065923990008595
8652.0,-0.041458167374980544
8656.0,-0.08306078318021784
8660.0,-0.13623465904244492
8664.0,-0.1550894338122044
8668.0,0.011095592776146307
8672.0,0.09519382980239746
8676.0,0.19631791960530393
8680.0,0.3104350749650425
8684.0,0.41856938047346876
8688.0,0.5101525302895574
8692.0,0.6063837693463104
8696.0,0.7336514894259328
8700.0,0.8149358623899738
8704.0,0.9331110847517442
8708.0,1.0453471775177356
8712.0,0.946922879717074
8716.0,0.8315965376806912
8720.0,0.7243531609170546
8724.0,0.6302718887555776
8728.0,0.510189985716926
8732.0,0.42781504958875677
8736.0,0.32457351430254566
8740.0,0.2178931678368727
8744.0,0.09862816692745824
8748.0,0.006004084299593295
8752.0,-0.06178323250455068
8756.0,-0.1285992156420134
8760.0,-0.17878859099164332
8764.0,-0.25424887321331247
8768.0,-0.29449627114911914
8772.0,-0.22953603398099856
8776.0,-0.19539641773824173
8780.0,-0.14317215361491975
8784.0,-0.0606502263107996
8788.0,-0.0526663632329583
8792.0,-0.05664327533096311
8796.0,-0.05202385266569758
8800.0,-0.05275686124108564
8804.0,-0.03722251018312869
8808.0,-0.0442878044343951
8812.0,-0.02792638254293172
8816.0,-0.0415966646862453
8820.0,-0.0397180745570534
8824.0,-0.03655177109004407
8828.0,-0.022922260456639403
8832.0,-0.034109543575123864
8836.0,-0.016640295779406712
8840.0,-0.029413526176841544
8844.0,-0.016393013584973228
8848.0,-0.008303416597911673
8852.0,-0.008874552807352437
8856.0,-0.007284145916608744
8860.0,0.012707304270889296
8864.0,-0.02458325266723089
8868.0,-0.0008399828035216499
8872.0,0.01558479317950994
8876.0,0.04328528565077909
8880.0,0.07456300191037861
8884.0,0.09239275100415398
8888.0,0.1252029860414883
8892.0,0.14197420818025944
8896.0,0.1572228671073724
8900.0,0.17782904643917272
8904.0,0.20403227201745924
8908.0,0.22445627780700345
8912.0,0.2148084990147639
8916.0,0.24831160481956813
8920.0,0.25410621307030157
8924.0,0.2777683582034595
8928.0,0.2904891203800075
8932.0,0.3062185429020808
8936.0,0.3044989128191697
8940.0,0.31020306765728156
8944.0,0.3071794576677483
8948.0,0.3107508520772412
8952.0,0.3277138829230568
8956.0,0.3070266525823951
8960.0,0.32502440439599095
8964.0,0.29251048803644164
8968.0,0.27848972439607345
8972.0,0.2847270985837483
8976.0,0.2786516041546518
8980.0,0.2389517179164098
8984.0,0.24215288323121334
8988.0,0.22326587059481218
8992.0,0.21121436135597754
8996.0,0.18005106989604971
9000.0,0.14882129701526056
9004.0,0.1581227528820672
9008.0,0.11757729251260375
9012.0,0.08946835846227892
9016.0,0.06545297014182813
9020.0,0.05207091496989484
9024.0,0.03647730173944212
9028.0,0.0025398864776240565
9032.0,0.009323871578831954
9036.0,0.008003073351715715
9040.0,-0.012123550736551301
9044.0,0.00898634165495109
9048.0,0.005243109251803113
9052.0,0.001024124990242556
9056.0,0.007023756870072287
9060.0,0.012961455836379534
9064.0,0.010577018352520631
9068.0,0.01097943477306943
9072.0,-0.009865684429519503
9076.0,-0.0172078074859458
9080.0,-0.011448099168173274
9084.0,-0.009407180652144331
9088.0,0.007063388347237773
9092.0,-0.009746800098024146
9096.0,0.009377355577574608
9100.0,-0.003311185484828532
9104.0,-0.013788316362255255
9108.0,-0.009100872591674572
9112.0,-0.0017799552901964313
9116.0,0.004740484449918272
9120.0,-0.015589400742550913
9124.0,-0.013084397432712254
9128.0,0.0035203688432555624
9132.0,0.002531325693275234
9136.0,-0.010336846136680922
9140.0,0.006109588951085286
9144.0,-0.010080422231185165
9148.0,-0.01029301120323983
9152.0,-0.0041538058658767444
9156.0,-0.0009730818742730354
9160.0,-0.01802757699111955
9164.0,0.0005572206444224595
9168.0,0.018056716100639757
9172.0,-0.005137369588029238
9176.0,0.020926594517753312
9180.0,0.08634018070644092
9184.0,0.10710030066090363
9188.0,0.13131002314276485
9192.0,0.1638122018506682
9196.0,0.19184297513317763
9200.0,0.20532765186881272
9204.0,0.22525343270974538
9208.0,0.23736393588988858
9212.0,0.24805835077533553
9216.0,0.2786029116256203
9220.0,0.26393378860305033
9224.0,0.2676327715168881
9228.0,0.2557314228083289
9232.0,0.2358032056965398
9236.0,0.2334507643896473
9240.0,0.21214431175432688
9244.0,0.19728200271098512
9248.0,0.18337872650841344
9252.0,0.16290027824589762
9256.0,0.13031722796002376
9260.0,0.11097540222850606
9264.0,0.059813338047679535
9268.0,0.02987178628664876
9272.0,-0.006522842139842597
9276.0,-0.0008640068880471072
9280.0,0.0022256333847475306
9284.0,0.00032986782095376625
9288.0,0.010196403142218778
9292.0,0.009918708261460737
9296.0,-0.01393342912680169
9300.0,0.002727579615260495
9304.0,0.0116478041363538
9308.0,0.007477841404745052
9312.0,0.005790002403231521
9316.0,-0.04789332146076795
9320.0,-0.09682511332527984
9324.0,-0.12566144010320165
9328.0,-0.1792218973350648
9332.0,-0.00813483665135158
9336.0,0.1103903498575174
9340.0,0.20414355747044222
9344.0,0.33101343601107697
9348.0,0.42215262843644863
9352.0,0.5216804891919675
9356.0,0.6372408088277154
9360.0,0.7306960434733925
9364.0,0.8413455437402485
9368.0,0.9438974407924471
9372.0,1.0416591710919814
9376.0,0.9490143738044142
9380.0,0.8230050282021819
9384.0,0.7355733034356207
9388.0,0.6289286513148727
9392.0,0.5248073429138299
9396.0,0.4093073208223459
9400.0,0.3365932387423173
9404.0,0.20486961532285677
9408.0,0.11252146979092346
9412.0,0.006711779131430009
9416.0,-0.06873270037278523
9420.0,-0.1282527355390352
9424.0,-0.17892366822146227
9428.0,-0.25537543877195307
9432.0,-0.32404809914051674
9436.0,-0.2519102474364253
9440.0,-0.19003759323763464
9444.0,-0.11836557061880758
9448.0,-0.04643874535500981
9452.0,-0.06441340846844383
9456.0,-0.045759463140396875
9460.0,-0.04810682411777715
9464.0,-0.04305822126299385
9468.0,-0.034012035286296656
9472.0,-0.04176787560776589
9476.0,-0.0452747449483955
9480.0,-0.03341615646973252
9484.0,-0.033322714399577014
9488.0,-0.0392594569019572
9492.0,-0.022925167161734948
9496.0,-0.010996708716366477
9500.0,-0.021859110308018785
9504.0,-0.018832043117937944
9508.0,-0.009589782457359065
9512.0,0.004023637266970685
9516.0,-0.003992302629717829
9520.0,-0.001384213507704399
9524.0,-0.030366138766083954
9528.0,-0.016681954639795722
9532.0,0.007533018862461236
9536.0,-0.001921287013504771
9540.0,0.04896830566882525
9544.0,0.07117955526201372
9548.0,0.09227665593181153
9552.0,0.11980825417675466
9556.0,0.143970481011662
9560.0,0.15190342660424025
9564.0,0.1750425024517194
9568.0,0.2158798369409074
9572.0,0.22066737835108235
9576.0,0.24805046705886444
9580.0,0.24824489675343797
9584.0,0.24213540335105535
9588.0,0.2792803706253988
9592.0,0.2896294164790194
9596.0,0.30444689718215534
9600.0,0.3072274135008467
9604.0,0.30628775452131835
9608.0,0.32419086615806625
9612.0,0.31364279412986473
9616.0,0.3040838025362524
9620.0,0.30026177748792426
9624.0,0.3161488997001784
9628.0,0.3018792741219524
9632.0,0.29694563118343614
9636.0,0.2794163919845112
9640.0,0.24525014671697248
9644.0,0.23953418495067325
9648.0,0.24472992223709694
9652.0,0.21915638103587706
9656.0,0.1972101473532865
9660.0,0.20135657805100418
9664.0,0.17442453186135368
9668.0,0.12809969949846392
9672.0,0.1308768491890147
9676.0,0.0980240518165588
9680.0,0.06799079866229266
9684.0,0.05531449590236253
9688.0,0.02513604707745301
9692.0,0.015737545406952345
9696.0,-0.009058655019869718
9700.0,-0.021601950824309706
9704.0,-0.0006168442973402265
9708.0,-0.013908421160015609
9712.0,-0.002841401297643112
9716.0,0.0026733210338828286
9720.0,0.0016356959816540002
9724.0,-0.002696865050483518
9728.0,-0.003164079920368629
9732.0,-0.016216819696243424
9736.0,-0.008864421257269321
9740.0,-0.014176949512426667
9744.0,-0.004010048791752048
9748.0,-0.024260062495810905
9752.0,-0.0005436501522618123
9756.0,0.006718989359527191
9760.0,0.0036620847766694726
9764.0,0.015746810604192883
9768.0,0.004687618468752832
9772.0,0.00625273744287729
9776.0,0.009873754725129958
9780.0,-0.004914115428015796
9784.0,0.00156807990497927
9788.0,0.0018092900757317838
9792.0,-0.02080851633276716
9796.0,0.009063460673880185
9800.0,0.004837844451973894
9804.0,7.073990019226244e-05
9808.0,0.02416921627349593
9812.0,-0.00670181660174238
9816.0,0.00585440593254862
9820.0,-0.009664821178636982
9824.0,-0.0019504253724988458
9828.0,-0.0069388153518394596
9832.0,-0.0046225028411138345
9836.0,0.00023240545648118907
9840.0,0.029680939349956838
9844.0,0.06678206130884921
9848.0,0.08450467059975034
9852.0,0.1239295357764525
9856.0,0.1435785825556032
9860.0,0.17536216296411533
9864.0,0.19187502148861463
9868.0,0.20405271349692317
9872.0,0.215933316895175
9876.0,0.25833868938996774
9880.0,0.23440039913488714
9884.0,0.24838881777372465
9888.0,0.24964619232848564
9892.0,0.23557994151849285
9896.0,0.2368630386273583
9900.0,0.22809104460474675
9904.0,0.20661261501558265
9908.0,0.1832192194010909
9912.0,0.1694567613849356
9916.0,0.15652333508931726
9920.0,0.11556779851880679
9924.0,0.08155482824410513
9928.0,0.06073397801899916
9932.0,0.02092707666231898
9936.0,-0.01475421291177597
9940.0,-0.0003923359676066073
9944.0,-0.011249848414073236
9948.0,-0.002259096402838503
9952.0,0.0019979288628833385
9956.0,0.0012174393719856331
9960.0,0.016692758306164585
9964.0,0.011641917390553012
9968.0,0.0011380356508042513
9972.0,-0.010168625254262462
9976.0,0.025347487369110532
9980.0,-0.05526118715653561
9984.0,-0.09398216280308301
9988.0,-0.11719938504791368
9992.0,-0.14961873227581607
9996.0,0.009098891524817491
10000.0,0.09505209576482472
10004.0,0.19080437284927595
10008.0,0.3076243210052047
10012.0,0.4039002671783286
10016.0,0.48862252310325266
10020.0,0.5947445949558602
10024.0,0.6805971418530947
10028.0,0.7660851353786783
10032.0,0.8710899703461962
10036.0,0.9790696717718416
10040.0,0.8787223727662202
10044.0,0.7841050421689079
10048.0,0.7049311802892572
10052.0,0.5877420831009722
10056.0,0.49434630011221375
10060.0,0.3898914327415081
10064.0,0.290926890200624
10068.0,0.19672475879548434
10072.0,0.10660444328541573
10076.0,-0.0076257629886854585
10080.0,-0.06690589207435033
10084.0,-0.13040370530125897
10088.0,-0.17639041298901506
10092.0,-0.22238610130231998
10096.0,-0.30384189558815017
10100.0,-0.24299725236068476
10104.0,-0.18261521081152457
10108.0,-0.12070860463439846
10112.0,-0.060228955403641135
10116.0,-0.05891986020366616
10120.0,-0.04581257484439923
10124.0,-0.046530597431618706
10128.0,-0.054988205805910705
10132.0,-0.045448076017178124
10136.0,-0.02492851340332805
10140.0,-0.05257942875652677
10144.0,-0.04294209043926479
10148.0,-0.03377508068051278
10152.0,-0.025474160745692722
10156.0,-0.02594852477371277
10160.0,-0.021476915362228254
10164.0,-0.02624439317032388
10168.0,-0.025825922780514057
10172.0,-0.012158603791690297
10176.0,-0.008056083847332134
10180.0,-0.01219781715869369
10184.0,-0.0036540712045181373
10188.0,-0.031075225365410717
10192.0,-0.0059349755167894406
10196.0,0.016281749469745508
10200.0,0.021261095173902553
10204.0,0.04709610969040327
10208.0,0.08109045638718057
10212.0,0.08101144551271408
10216.0,0.12872895095326523
10220.0,0.14261294957451412
10224.0,0.14757956298283212
10228.0,0.17653277620898858
10232.0,0.19207579972331573
10236.0,0.21750547701044864
10240.0,0.20926403711775485
10244.0,0.2263181182227845
10248.0,0.2353970804474028
10252.0,0.25556164639307344
10256.0,0.29590638213810305
10260.0,0.2811248771192367
10264.0,0.3018301390600703
10268.0,0.29083334817716355
10272.0,0.26666197779954387
10276.0,0.28328291497757413
10280.0,0.29159487172054205
10284.0,0.28194785700917235
10288.0,0.28420733200597115
10292.0,0.2873369765108658
10296.0,0.2572719340397103
10300.0,0.2598614861366748
10304.0,0.24815974020880155
10308.0,0.2378235160655714
10312.0,0.22929981306555067
10316.0,0.20400930546700013
10320.0,0.1890325728770278
10324.0,0.1710792221136243
10328.0,0.15024297158623204
10332.0,0.13868878184558203
10336.0,0.10896036011787377
10340.0,0.08343455941262307
10344.0,0.06511671851929385
10348.0,0.052132261176094805
10352.0,0.016182188662628723
10356.0,-0.010399432455264783
10360.0,-0.01113895615720598
10364.0,-0.02035799365602083
10368.0,0.0036651941951715513
10372.0,0.008012493636387698
10376.0,0.005187809980826421
10380.0,0.0011115909048683302
10384.0,0.005818212623082298
10388.0,0.011329698869935009
10392.0,-0.005347490311207416
10396.0,0.0019544772661989813
10400.0,0.008443555320598978
10404.0,-0.005433508888082399
10408.0,0.0019245544100293397
10412.0,-0.0015866653644251616
10416.0,0.008244762636958763
10420.0,0.003812800689151176
10424.0,0.015187366949755787
10428.0,0.009643384113574726
10432.0,0.015555788495258112
10436.0,-0.008677341857678607
10440.0,0.0018913373751387988
10444.0,0.0037870989110901677
10448.0,0.005256569706356304
10452.0,-0.019482371582332295
10456.0,-0.007937794215161562
10460.0,-0.000971454357328892
10464.0,0.019466944208658177
10468.0,0.006852465691212751
10472.0,-0.009230048971861285
10476.0,-0.0049656683682473045
10480.0,-0.005417557475776817
10484.0,-0.009901464177161172
10488.0,-0.014051399775974343
10492.0,0.007966909333094425
10496.0,0.0015008485098986285
10500.0,-0.009560511997166997
10504.0,0.02555110218132434
10508.0,0.04502433995099216
10512.0,0.10573089553688515
10516.0,0.14196890534481943
10520.0,0.1673980598428179
10524.0,0.16894007255495452
10528.0,0.19581342723905565
10532.0,0.2260197366794314
10536.0,0.2343051116663512
10540.0,0.22436965694145655
10544.0,0.25539099736963555
10548.0,0.2546280547805842
10552.0,0.24718384283078593
10556.0,0.23629078656355296
10560.0,0.2366766186437706
10564.0,0.2355720171962535
10568.0,0.21977621705248973
10572.0,0.17582505348824679
10576.0,0.17417890990390889
10580.0,0.13645852101137074
10584.0,0.11842822857360057
10588.0,0.08253502651264137
10592.0,0.0647067285916642
10596.0,0.01767605263068171
10600.0,0.010086615551382468
10604.0,-0.014984756742111013
10608.0,-0.0013679178654202426
10612.0,-0.014827286245881827
10616.0,0.0009510686652801117
10620.0,-0.012868082788060276
10624.0,-0.0009534223442103502
10628.0,0.0008894007858526789
10632.0,-0.00569278611272137
10636.0,-0.002410656335769624
10640.0,-0.019785690403474502
10644.0,-0.042910855151656935
10648.0,-0.07821189828944791
10652.0,-0.131693906473606
10656.0,-0.14367108744682694
10660.0,0.001375821349657324
10664.0,0.09333642531187074
10668.0,0.19769753376065188
10672.0,0.28025882625328696
10676.0,0.40930147776643955
10680.0,0.5065168016276893
10684.0,0.593899948374748
10688.0,0.7000864471655693
10692.0,0.7877721450934724
10696.0,0.8923635765548239
10700.0,0.990879615943505
10704.0,0.9019520535977604
10708.0,0.8064143978715105
10712.0,0.7223762152216465
10716.0,0.5969674931723362
10720.0,0.4949605310311308
10724.0,0.413775366872555
10728.0,0.3053404497519949
10732.0,0.20476897622258544
10736.0,0.09286947065452429
10740.0,-0.002404715816217058
10744.0,-0.062144784663455264
10748.0,-0.09269990239553308
10752.0,-0.17821949081704205
10756.0,-0.23188008317598394
10760.0,-0.299560549551351
10764.0,-0.24224946817450108
10768.0,-0.18443716619452874
10772.0,-0.13119602790904808
10776.0,-0.053228291731752336
10780.0,-0.022792345453991787
10784.0,-0.05005389095579143
10788.0,-0.03542835105776235
10792.0,-0.036031743317194435
10796.0,-0.043554691478905574
10800.0,-0.030068417381258192
10804.0,-0.043652300773252356
10808.0,-0.029074109785569863
10812.0,-0.043216235907057816
10816.0,-0.01966043366564085
10820.0,-0.03548080855593455
10824.0,-0.01659450921958045
10828.0,-0.001139752504114095
10832.0,0.004220045731512724
10836.0,-0.007190017405122076
10840.0,-0.02391380846146073
10844.0,0.0002091165811650697
10848.0,-0.01392754067068663
10852.0,0.005893682062235358
10856.0,-0.014727324463184055
10860.0,0.010375611295020763
10864.0,0.02895115781223103
10868.0,0.039512962659666154
10872.0,0.07142086250044956
10876.0,0.0911353142857631
10880.0,0.11416547040629846
10884.0,0.1180528870871917
10888.0,0.13172672177089972
10892.0,0.1798582624634719
10896.0,0.20364061693202326
10900.0,0.22671632355049168
10904.0,0.223800540856387
10908.0,0.25030404429816866
10912.0,0.24962600777375887
10916.0,0.2482078123324642
10920.0,0.2709945723419764
10924.0,0.2824069350120564
10928.0,0.2929611259069739
10932.0,0.30215173995101124
10936.0,0.3025713258136338
10940.0,0.2983483144370816
10944.0,0.3028088664742445
10948.0,0.3037746479213551
10952.0,0.28726017625324773
10956.0,0.2864303459580544
10960.0,0.2883985993758431
10964.0,0.2870879833717315
10968.0,0.2615449912691308
10972.0,0.24315507025581368
10976.0,0.2136486287651574
10980.0,0.21417035703861284
10984.0,0.1933912727333424
10988.0,0.1862630616208209
10992.0,0.1759124097514086
10996.0,0.13650025979838623
11000.0,0.13006010696591902
11004.0,0.07562638544372312
11008.0,0.05908800358804301
11012.0,0.06629529548576063
11016.0,0.026921698943089555
11020.0,0.0042874313408379425
11024.0,-0.006276228120914043
11028.0,-0.0019897333140052116
11032.0,-0.006252251118899535
11036.0,0.004995009225489474
11040.0,0.004130500765704582
11044.0,0.0033221025465746535
11048.0,0.0013174639085542096
11052.0,0.007813986013854225
11056.0,-0.010984820660468289
11060.0,-0.0020628773106257823
11064.0,-0.0009860174386413306
11068.0,0.003152824727278629
11072.0,-0.013762969924771282
11076.0,0.012565311190060473
11080.0,0.0034819686432309947
11084.0,0.00579667357260638
11088.0,-0.0009596462070376172
11092.0,-0.00010340167915440895
11096.0,0.004365159649944912
11100.0,-0.013394569856831717
11104.0,0.00030312235343610917
11108.0,-0.0010656748626619058
11112.0,-0.01280962660192111
11116.0,-0.0024900738129030073
11120.0,0.014780358136653498
11124.0,-0.002427065669998434
11128.0,-0.0005189909026245277
11132.0,-0.009433377962393703
11136.0,-0.009503369679868494
11140.0,-0.0007424679529646729
11144.0,-0.02424271253630883
11148.0,0.01836843569924676
11152.0,-0.006066890859176807
11156.0,-0.0006113041083040878
11160.0,0.003620619790557629
11164.0,0.01880909394372399
11168.0,0.03683760764059365
11172.0,0.06477278306547272
11176.0,0.07992256724053955
11180.0,0.12446900151638872
11184.0,0.14872126686617532
11188.0,0.16883867174526976
11192.0,0.1915117491890401
11196.0,0.19512810323593063
11200.0,0.2194812253278217
11204.0,0.2400018822909378
11208.0,0.24967679072618945
11212.0,0.2587402315185469
11216.0,0.23573140073896132
11220.0,0.24665283837942695
11224.0,0.2481976072226501
11228.0,0.219501908701362
11232.0,0.20535689689846365
11236.0,0.19860554930797505
11240.0,0.1772409127593955
11244.0,0.14360047270556048
11248.0,0.12573016043600002
11252.0,0.09693932117660582
11256.0,0.058354333435046736
11260.0,0.022866812862531914
11264.0,-0.007828085025558717
11268.0,-0.0061843748429739635
11272.0,0.013579648470339606
11276.0,0.006389914970367171
11280.0,-0.0005595297986800077
11284.0,-0.001493408193915497
11288.0,-0.012221568983684039
11292.0,0.008428193640353996
11296.0,-0.011324227334417037
11300.0,-0.017096279597688804
11304.0,-0.009938637349999887
11308.0,-0.0411302666297625
11312.0,-0.08444189968880615
11316.0,-0.11998403298755914
11320.0,-0.15018600820958639
11324.0,-0.004223595532182005
11328.0,0.09620330693101142
11332.0,0.19498363261535143
11336.0,0.30374359754925956
11340.0,0.398317725633091
11344.0,0.4999631973239726
11348.0,0.5847316578408605
11352.0,0.7043998787708539
11356.0,0.7840465523688889
11360.0,0.8857861203431804
11364.0,0.9969091299697348
11368.0,0.8896257517063806
11372.0,0.7876903309942268
11376.0,0.691147888491152
11380.0,0.5762866422033198
11384.0,0.502564650651368
11388.0,0.40749617562142937
11392.0,0.30796231789012596
11396.0,0.20998031835064587
11400.0,0.07358332138790613
11404.0,-0.014305910043943042
11408.0,-0.0632586070731465
11412.0,-0.10681318672428058
11416.0,-0.17454790015860977
11420.0,-0.2511584608709231
11424.0,-0.28996182063884385
11428.0,-0.22584364299250226
11432.0,-0.15967422043374213
11436.0,-0.1191016337664162
11440.0,-0.06207224307704384
11444.0,-0.04438679887959451
11448.0,-0.05412367915084854
11452.0,-0.04386011479965106
11456.0,-0.03207653895342093
11460.0,-0.04501230123066096
11464.0,-0.02994313522311934
11468.0,-0.03367847702637603
11472.0,-0.03652504153943331
11476.0,-0.025339500537076495
11480.0,-0.02172602289987244
11484.0,-0.017200115769422476
11488.0,-0.02308185011694543
11492.0,-0.01568843384614641
11496.0,-0.02252989055141556
11500.0,-0.016271951259669577
11504.0,-0.02181299365229712
11508.0,-0.006258233191964268
11512.0,-0.00827406396643894
11516.0,-0.009973928410427022
11520.0,0.0052423531754173195
11524.0,0.0016916803827688872
11528.0,0.01856632113611401
11532.0,0.051582885175518976
11536.0,0.06494200836063034
11540.0,0.10180982481919221
11544.0,0.11131869508482199
11548.0,0.14788373055474102
11552.0,0.17442204530902156
11556.0,0.17672174010130015
11560.0,0.19862030883785342
11564.0,0.20390685147285076
11568.0,0.23078454342744487
11572.0,0.24585443053850853
11576.0,0.24467513079428244
11580.0,0.2570959265345995
11584.0,0.26845165952431066
11588.0,0.2865243425455958
11592.0,0.28332728659144635
11596.0,0.2790821880786294
11600.0,0.31557928654390616
11604.0,0.28960635686366715
11608.0,0.2910872239465627
11612.0,0.3089247470516519
11616.0,0.30300467824381183
11620.0,0.27798015061177844
11624.0,0.27612544493796387
11628.0,0.28167464880912374
11632.0,0.2768083929389777
11636.0,0.24493946779559586
11640.0,0.2267265806109988
11644.0,0.20591626099361654
11648.0,0.18828419219710918
11652.0,0.17167503137774529
11656.0,0.1442572450684607
11660.0,0.13271227966848737
11664.0,0.14901384364247602
11668.0,0.09671261379961665
11672.0,0.07538925999281287
11676.0,0.04130560436716521
11680.0,0.030536376997033512
11684.0,-0.01972050489825471
11688.0,-0.001670204724052684
11692.0,0.008518178026382004
11696.0,0.008402792357525089
11700.0,-0.015207480896885036
11704.0,-0.015615268610514326
11708.0,-0.015423464229498718
11712.0,0.005035760719174109
11716.0,-0.0073190067929512
11720.0,0.004765464632179305
11724.0,-0.0035158560960136366
11728.0,0.009419823243676474
11732.0,-0.0059890876100108705
11736.0,-0.012750093279541566
11740.0,-0.014440198153285526
11744.0,0.014878735484258781
11748.0,-0.016466539552312944
11752.0,0.008573668700747801
11756.0,0.009858237164690265
11760.0,-0.015924906643224136
11764.0,0.005343637310905571
11768.0,-0.015381720357055729
11772.0,-0.00380862606665974
11776.0,0.014353707955524682
11780.0,0.006513107989583656
11784.0,-0.011700210379148562
11788.0,-0.004995638807170094
11792.0,0.003304765690717875
11796.0,-0.003757200251482584
11800.0,0.002161450679468656
11804.0,-0.0012014482912516941
11808.0,-0.0033643137092254677
11812.0,0.01343677849417938
11816.0,-0.011268205666148272
11820.0,0.003132612542972886
11824.0,0.00611359581136721
11828.0,-0.01604671195761239
11832.0,0.028616203591172847
11836.0,0.06751701738728681
11840.0,0.09764218514199247
11844.0,0.12653731347751515
11848.0,0.1508938496814508
11852.0,0.16517818224925623
11856.0,0.20464303346593943
11860.0,0.21222839854466596
11864.0,0.22223966445063667
11868.0,0.22383698951665834
11872.0,0.251471503331677
11876.0,0.23070176047819968
11880.0,0.25604456422061667
11884.0,0.24356022871937685
11888.0,0.22742492222036395
11892.0,0.22264810168082141
11896.0,0.20256168939516203
11900.0,0.1869916790242152
11904.0,0.16583758378303556
11908.0,0.13529963432244074
11912.0,0.11692136648169378
11916.0,0.08503498482655739
11920.0,0.06405250066208104
11924.0,0.03290214700430653
11928.0,-0.014096095843059906
11932.0,-0.00835336513793067
11936.0,-0.00973027881892616
11940.0,-0.015109245989330326
11944.0,0.010982261892515888
11948.0,0.008026717995280427
11952.0,0.00955325551159215
11956.0,-0.002882281837250136
11960.0,0.0011764168095734716
11964.0,0.004068237919260564
11968.0,-0.012038385216458253
11972.0,-0.04168020680488582
11976.0,-0.0756601289670264
11980.0,-0.12697734742794808
11984.0,-0.14644489131831215
11988.0,-0.0012546447120334334
11992.0,0.10035688404556108
11996.0,0.19964643268434823
12000.0,0.3059184801447755
12004.0,0.4012592776849246
12008.0,0.4857729671562147
12012.0,0.5909060094261004
12016.0,0.7000973990308266
12020.0,0.7950445108084131
12024.0,0.8672938053125822
12028.0,0.9846730064417327
12032.0,0.905102355695257
12036.0,0.7753436385089377
12040.0,0.6824062211069349
12044.0,0.5827916999483723
12048.0,0.5108607289421432
12052.0,0.40286675308455316
12056.0,0.29611061625116375
12060.0,0.1900547430211285
12064.0,0.09673658393326252
12068.0,-0.0007809912543255996
12072.0,-0.057461154841964304
12076.0,-0.12596688940822354
12080.0,-0.18545141961640615
12084.0,-0.23190439624642292
12088.0,-0.29735185117243007
12092.0,-0.22746716457749766
12096.0,-0.17518549356869834
12100.0,-0.1292864149362997
12104.0,-0.07354872545338312
12108.0,-0.03235259001824476
12112.0,-0.05382985838865648
12116.0,-0.049134487321374404
12120.0,-0.027474557149913557
12124.0,-0.04432742628847206
12128.0,-0.04583134942510032
12132.0,-0.03565866217041513
12136.0,-0.03906468735135884
12140.0,-0.02176984979298993
12144.0,-0.0251082720443632
12148.0,-0.022918203768580638
12152.0,-0.023989114143855062
12156.0,-0.009457542668204583
12160.0,-0.0070081921075168686
12164.0,-0.004565495280804797
12168.0,-0.004285414430984954
12172.0,-0.016404602578967455
12176.0,-0.010517420158926486
12180.0,-0.013483870897228974
12184.0,0.0022628434427924273
12188.0,-0.005272546174140192
12192.0,0.03309733373817541
12196.0,0.0446774014272787
12200.0,0.06319516264446777
12204.0,0.11021726020272316
12208.0,0.12963433591374657
12212.0,0.12465222609211547
12216.0,0.14286723747404204
12220.0,0.16765909809728752
12224.0,0.1869243191020004
12228.0,0.2103671317020254
12232.0,0.23003264216781952
12236.0,0.250867909265201
12240.0,0.2609761342916022
12244.0,0.27133804831056657
12248.0,0.25880156758437917
12252.0,0.2742729548278218
12256.0,0.2827655031317052
12260.0,0.2974932173878601
12264.0,0.28959309454599935
12268.0,0.3127472929059391
12272.0,0.29993847359505227
12276.0,0.2872655887360379
12280.0,0.28445304525765963
12284.0,0.2792754025198227
12288.0,0.26452009259434256
12292.0,0.25680306420831517
12296.0,0.24917977695717475
12300.0,0.23864749242463104
12304.0,0.21444385037729802
12308.0,0.19281383069524344
12312.0,0.23064585068812513
12316.0,0.1749343835952408
12320.0,0.16090263953736986
12324.0,0.13891078185515077
12328.0,0.09611361930029438
12332.0,0.08636008596322141
12336.0,0.05809817885155753
12340.0,0.0450457616472831
12344.0,0.023954637875351206
12348.0,-0.006084082469882282
12352.0,-0.006531820977561022
12356.0,0.012699405987630554
12360.0,0.018352868592600956
12364.0,-0.00538538204548001
12368.0,-0.004900633568045075
12372.0,0.003618309486358525
12376.0,-0.0164349947839845
12380.0,0.007622600107284591
12384.0,0.004348423934665074
12388.0,-0.010747970104603145
12392.0,-0.021774871160315824
12396.0,0.003719579532623944
12400.0,-0.004031686359707247
12404.0,-0.015308207376095534
12408.0,-0.004730718926682419
12412.0,-0.0026674957021406358
12416.0,0.006969108054025857
12420.0,0.00028813552169157445
12424.0,0.0011945986086773453
12428.0,-0.004229734347553408
12432.0,0.002962179674004233
12436.0,-0.0012211978696382928
12440.0,-0.010232200342735072
12444.0,0.002083009571451569
12448.0,0.01572069250735888
12452.0,0.007586118305888883
12456.0,0.0034532590404428845
12460.0,-0.018251719259013078
12464.0,0.016727993166474785
12468.0,0.009457802574826984
12472.0,0.009194578018577251
12476.0,-0.019140307957337146
12480.0,0.007798486177573833
12484.0,0.01868983569483338
12488.0,-0.002617224967402576
12492.0,0.005720969436393151
12496.0,0.02065788826979085
12500.0,0.044045659829281214
12504.0,0.07533554309151322
12508.0,0.11897463856788885
12512.0,0.1245574587560038
12516.0,0.16890473064166478
12520.0,0.18801276973204753
12524.0,0.20526387899796036
12528.0,0.21747576187109555
12532.0,0.21915375853282593
12536.0,0.24617199181828966
12540.0,0.22977108708545038
12544.0,0.24138568793791745
12548.0,0.2211833485995716
12552.0,0.22364949870773218
12556.0,0.2193437533051277
12560.0,0.22082236627801258
12564.0,0.18073489239189655
12568.0,0.18999113726477246
12572.0,0.14779859992856756
12576.0,0.11766986001756413
12580.0,0.09497633698813346
12584.0,0.06781531786652449
12588.0,0.025586107232903013
12592.0,0.002776046714850233
12596.0,0.011370215960429553
12600.0,-0.001203799527521109
12604.0,0.0010695650972014636
12608.0,0.005580499058106342
12612.0,0.006297005175027003
12616.0,0.01024830257912778
12620.0,-0.006583617172967214
12624.0,0.004008824748224733
12628.0,-0.0008647523921505203
12632.0,-0.0058206351564236425
12636.0,-0.0544547040469893
12640.0,-0.07413582094754138
12644.0,-0.11607032296129696
12648.0,-0.16306525396522664
12652.0,-0.00037582663057529565
12656.0,0.10271560166118389
12660.0,0.1960861131969732
12664.0,0.30820885256371294
12668.0,0.38209434977002416
12672.0,0.4829087887826554
12676.0,0.5759391256495169
12680.0,0.6546986174301901
12684.0,0.7706157294763519
12688.0,0.8856266972111044
12692.0,0.9878379165206796
12696.0,0.8836941912071005
12700.0,0.7851495754905254
12704.0,0.6931295719890747
12708.0,0.5797827488180342
12712.0,0.4926834329270905
12716.0,0.3928664525809815
12720.0,0.30921429269697753
12724.0,0.19647759067401527
12728.0,0.07201824791893892
12732.0,0.0179552215361661
12736.0,-0.05807363565101529
12740.0,-0.08424049560896585
12744.0,-0.18399801929099838
12748.0,-0.22508954897384992
12752.0,-0.289023635429294
12756.0,-0.24393468388352207
12760.0,-0.18123266597931803
12764.0,-0.135029206191935
12768.0,-0.05760460175168671
12772.0,-0.06571244671884767
12776.0,-0.02963834345038713
12780.0,-0.04016486963418552
12784.0,-0.03854892970363621
12788.0,-0.031374114538512396
12792.0,-0.03437873007777955
12796.0,-0.028529470367081443
12800.0,-0.028118219494444117
12804.0,-0.03522721149196667
12808.0,-0.023825912938548896
12812.0,-0.03376362658879981
12816.0,-0.01832721764156375
12820.0,-0.0392533537175943
12824.0,-0.022991505429383493
12828.0,-0.02174655741951423
12832.0,-0.02057195512770159
12836.0,-0.023679698824449626
12840.0,-0.009760985270263086
12844.0,-0.005171086751473919
12848.0,-0.009355041920777808
12852.0,0.002031705505324841
12856.0,0.012204263575547571
12860.0,0.04199983007111539
12864.0,0.08211192428383148
12868.0,0.08461722016026918
12872.0,0.10791020850017956
12876.0,0.13459709611826526
12880.0,0.13772904487261484
12884.0,0.15502060981183924
12888.0,0.19757317787215833
12892.0,0.20243243553628104
12896.0,0.2281685862138434
12900.0,0.2502380053402239
12904.0,0.23097974454669043
12908.0,0.2791993954042252
12912.0,0.25892104530768034
12916.0,0.2651381831798055
12920.0,0.27987981570637027
12924.0,0.29286042142410634
12928.0,0.28524662716403243
12932.0,0.29187214585277
12936.0,0.286073783389609
12940.0,0.2830580604314924
12944.0,0.2790294558228578
12948.0,0.26659040610217016
12952.0,0.2634944791208755
12956.0,0.23174873914829858
12960.0,0.2548468291546428
12964.0,0.23973556610570354
12968.0,0.22274816063286107
12972.0,0.2219966775064882
12976.0,0.19516181693475837
12980.0,0.16886000602247872
12984.0,0.1474429347683443
12988.0,0.1416857759652136
12992.0,0.10056568229511466
12996.0,0.09668740945823194
13000.0,0.08249238105756646
13004.0,0.03590639152420492
13008.0,0.035551683536713466
13012.0,-0.007935031830732542
13016.0,-0.0036130688531431695
13020.0,-0.005084401582490977
13024.0,-0.0008821504986298847
13028.0,-0.0024814081109790108
13032.0,0.0073359244275525435
13036.0,-0.003200550446682392
13040.0,0.003974763925763969
13044.0,-0.0002349063214556371
13048.0,-0.0028233950112027933
13052.0,-0.00559338287479363
13056.0,0.0002583096899957272
13060.0,0.014567402415142358
13064.0,-0.0077761517719960776
13068.0,2.009317602369326e-05
13072.0,0.011864485799871373
13076.0,0.002286366466113276
13080.0,0.00954832754957344
13084.0,-0.006230678765117815
13088.0,-0.010653227379734951
13092.0,0.004737071556026594
13096.0,-0.00795927755765905
13100.0,0.014676982146597697
13104.0,0.0019651417752834014
13108.0,-0.007946457169130785
13112.0,-0.009256064983508942
13116.0,0.019359179041687574
13120.0,0.005936717103330747
13124.0,0.012919580958168338
13128.0,-0.011975661714765131
13132.0,-0.004586348218990393
13136.0,-0.0049597371957058505
13140.0,-0.005700781715956795
13144.0,0.0023647634954902168
13148.0,0.0027708540895673523
13152.0,0.007501136483162807
13156.0,0.0049946181201726
13160.0,0.030560992414586995
13164.0,0.0468771177961357
13168.0,0.08485758013913212
13172.0,0.12310977618365382
13176.0,0.15013608801365616
13180.0,0.15997986772811582
13184.0,0.20602486431724004
13188.0,0.21084188372953352
13192.0,0.22102181677676067
13196.0,0.2366030580021434
13200.0,0.2412573399790756
13204.0,0.2634650031376886
13208.0,0.23991339334888506
13212.0,0.2538377630680791
13216.0,0.235363620691092
13220.0,0.21969121741178801
13224.0,0.20631508064662954
13228.0,0.18649799677050213
13232.0,0.17631566979409444
13236.0,0.14756011936866043
13240.0,0.11616367030484918
13244.0,0.09773150058273056
13248.0,0.042824999569386846
13252.0,0.04023765498697708
13256.0,-0.016277769557198715
13260.0,0.012067580300634049
13264.0,0.0014062719409676388
13268.0,-0.01678834416648179
13272.0,-0.0026288386342645585
13276.0,0.002638988405905421
13280.0,-0.005528959264495047
13284.0,0.006295014180138455
13288.0,0.018669134643804448
13292.0,0.011273716304299361
13296.0,-0.014477459981124558
13300.0,-0.023761787790942242
13304.0,-0.07985554235681291
13308.0,-0.12768478858412993
13312.0,-0.14158675857000452
13316.0,0.007116013209876068
13320.0,0.10118070658470038
13324.0,0.20641581401029924
13328.0,0.279422756503068
13332.0,0.37428892806240677
13336.0,0.49679623031851194
13340.0,0.5905007902825913
13344.0,0.6937270711582564
13348.0,0.7913851415120623
13352.0,0.8774115150171677
13356.0,0.9977434364357539
13360.0,0.8804252972696561
13364.0,0.781620408310276
13368.0,0.683337806290308
13372.0,0.6133792762041845
13376.0,0.4856713601525584
13380.0,0.4005284685626632
13384.0,0.295905678042221
13388.0,0.2150439936959525
13392.0,0.09636565866197427
13396.0,-0.009296373569167743
13400.0,-0.0677463436051544
13404.0,-0.12112697378741939
13408.0,-0.1653224447779804
13412.0,-0.21692831709772714
13416.0,-0.2978835650313857
13420.0,-0.25368534765649964
13424.0,-0.17812573316400526
13428.0,-0.12425526849025327
13432.0,-0.06346103990683201
13436.0,-0.0474068565770894
13440.0,-0.05299953396248655
13444.0,-0.04329297741391027
13448.0,-0.030322800483036413
13452.0,-0.03523883568683059
13456.0,-0.04354455910493628
13460.0,-0.029883976139323868
13464.0,-0.027586809612278225
13468.0,-0.016638755224467172
13472.0,-0.02826939100436775
13476.0,-0.019387199997740592
13480.0,-0.017295154987925627
13484.0,-0.01932279174696712
13488.0,-0.01870185150541039
13492.0,0.0045952835620466734
13496.0,-0.007085295657961485
13500.0,-0.02287261303872834
13504.0,-0.02193432524091277
13508.0,0.011061012648178822
13512.0,-0.0016078167604275547
13516.0,-0.003407653225293175
13520.0,0.031151704364718903
13524.0,0.05281554772841664
13528.0,0.08443027295602112
13532.0,0.10487188824931096
13536.0,0.10943670428483634
13540.0,0.13918826545562288
13544.0,0.15716117523626844
13548.0,0.1703063942004812
13552.0,0.1853199679584852
13556.0,0.20561719366906814
13560.0,0.23278067396520222
13564.0,0.21663159509469931
13568.0,0.2709767480433335
13572.0,0.26660018496824434
13576.0,0.2752402231752593
13580.0,0.27724102883010415
13584.0,0.28182282766077404
13588.0,0.27801493050127696
13592.0,0.30316613579609736
13596.0,0.28667841706267394
13600.0,0.27962942839448374
13604.0,0.3073260043679981
13608.0,0.2885604045478106
13612.0,0.2770711472362087
13616.0,0.2722900430268273
13620.0,0.247483256402929
13624.0,0.2604529858718922
13628.0,0.2344821616478646
13632.0,0.22213164201971533
13636.0,0.20997158660305737
13640.0,0.19448239616946814
13644.0,0.17142537656333387
13648.0,0.15492357527013048
13652.0,0.14793207807873604
13656.0,0.1137532316785884
13660.0,0.09235829757919972
13664.0,0.06644498630333603
13668.0,0.049561603009976155
13672.0,0.025027592633180936
13676.0,0.0159838260264434
13680.0,0.0001191438852986459
13684.0,-0.013714345324617285
13688.0,-0.01910138449135665
13692.0,0.0020009433914922555
13696.0,-0.0020785270981688057
13700.0,-0.018429339868700764
13704.0,0.019551517389173174
13708.0,-0.01298899547062983
13712.0,-0.013271385359977982
13716.0,0.01619143184987715
13720.0,-0.006473479565911655
13724.0,-0.011579005924217334
13728.0,-0.009608161063416451
13732.0,-0.014531941355969285
13736.0,0.0028290289007912926
13740.0,-0.01305201125180811
13744.0,-0.02439194680297388
13748.0,0.006530828964896722
13752.0,0.015123981046054263
13756.0,-0.005234196152751288
13760.0,0.010032043197767274
13764.0,-0.0007212701263561225
13768.0,-0.013874076290381189
13772.0,0.003476663561641195
13776.0,0.011020936132970574
13780.0,0.006907306284412047
13784.0,-0.01571753555121991
13788.0,0.007335529129119124
13792.0,0.004695537140547861
13796.0,0.012008445928403782
13800.0,0.004095640826603503
13804.0,-0.005744207578590974
13808.0,-0.02078672720911762
13812.0,-0.00014311743829125909
13816.0,-0.0042596195748179945
13820.0,2.7813681856732348e-06
13824.0,0.03139559554315356
13828.0,0.04820925198628458
13832.0,0.09128348738153204
13836.0,0.12504326694862156
13840.0,0.1398707137090402
13844.0,0.16541363403259693
13848.0,0.1956552411644563
13852.0,0.20771788956977896
13856.0,0.22471124076721596
13860.0,0.23021668898680916
13864.0,0.24607318475663847
13868.0,0.25990207376121716
13872.0,0.26096071851132935
13876.0,0.24018708143008327
13880.0,0.24710863599975147
13884.0,0.22444465465589608
13888.0,0.2339492234390183
13892.0,0.19791595685148003
13896.0,0.16726307752818484
13900.0,0.1473810263278383
13904.0,0.11822579159124531
13908.0,0.09309742046558553
13912.0,0.07457080844892316
13916.0,0.018531315996272578
13920.0,-0.0034672937767330127
13924.0,-0.012919949536068915
13928.0,-0.016411703005917665
13932.0,0.008533775219779388
13936.0,-0.0026870305572922384
13940.0,0.013730949921856639
13944.0,-0.015476947264289156
13948.0,0.0026585691756042668
13952.0,0.0019805326346680357
13956.0,0.011495745646714
13960.0,0.01031991834792041
13964.0,-0.048973496607131115
13968.0,-0.08788556230859645
13972.0,-0.12449909856145731
13976.0,-0.1847393147527124
13980.0,0.012778612693428715
13984.0,0.0822782619810543
13988.0,0.21717237741671927
13992.0,0.31872364046394386
13996.0,0.4032358429756578
14000.0,0.5087995852247404
14004.0,0.6206185611362982
14008.0,0.7247409536578437
14012.0,0.7974248685426051
14016.0,0.9221201284319803
14020.0,1.0320149218621613
14024.0,0.9218112989723587
14028.0,0.8357515091286996
14032.0,0.7256470312987651
14036.0,0.5934063904821667
14040.0,0.5138118066735855
14044.0,0.4218184729143967
14048.0,0.3045797471106234
14052.0,0.21176275731027142
14056.0,0.1094574588855795
14060.0,0.005728378540443467
14064.0,-0.060678139605713326
14068.0,-0.10704124893010862
14072.0,-0.1815137878037183
14076.0,-0.23930447962772328
14080.0,-0.3020466508113974
14084.0,-0.25766208159157783
14088.0,-0.19522341314097807
14092.0,-0.1169594992435802
14096.0,-0.07456747531165411
14100.0,-0.04008096193446773
14104.0,-0.03736694502108845
14108.0,-0.051723294518305325
14112.0,-0.04855219007342405
14116.0,-0.028571611661997783
14120.0,-0.046795318148108805
14124.0,-0.029441163710757313
14128.0,-0.039341432753240806
14132.0,-0.027016879592895955
14136.0,-0.03623772331191126
14140.0,-0.02924897523697955
14144.0,-0.021447964781131385
14148.0,-0.02017620124780972
14152.0,-0.014026915252665043
14156.0,-0.02443392319242592
14160.0,-0.012065794453842413
14164.0,-0.03119626444854099
14168.0,-0.024886486441158127
14172.0,0.00022858157521130334
14176.0,-0.009392325435780738
14180.0,-0.014367215015184787
14184.0,0.03741100772673997
14188.0,0.05297333999527088
14192.0,0.07279964164196107
14196.0,0.10402320281068998
14200.0,0.12315375475393234
14204.0,0.15308280672640556
14208.0,0.15815213434441225
14212.0,0.1809580564025959
14216.0,0.2038606066937326
14220.0,0.22105266253564243
14224.0,0.24367396642849978
14228.0,0.2473817207661078
14232.0,0.26546874231116413
14236.0,0.2713443206191285
14240.0,0.2763989339869077
14244.0,0.29651628583798645
14248.0,0.2929749750948172
14252.0,0.2925361830728011
14256.0,0.3319442849900195
14260.0,0.301080470994943
14264.0,0.30149944665225237
14268.0,0.30122926660446464
14272.0,0.30064324656264774
14276.0,0.3005538934634162
14280.0,0.2807536564147319
14284.0,0.2682583087266738
14288.0,0.24971784487719287
14292.0,0.24495391524211513
14296.0,0.2310876186468171
14300.0,0.23054060352023534
14304.0,0.17152922455761285
14308.0,0.18772408371324414
14312.0,0.16568089218193566
14316.0,0.14808752376154813
14320.0,0.10780965724494156
14324.0,0.11658325467841771
14328.0,0.09203860026618932
14332.0,0.037013122150752566
14336.0,0.020199573912029714
14340.0,0.012312766376213624
14344.0,0.0033629532997734926
14348.0,0.004085812551924156
14352.0,-0.005353497988277365
14356.0,0.0031501725082890043
14360.0,-0.007865008963033278
14364.0,-0.004126365984403652
14368.0,-0.00813691076856312
14372.0,0.008803819187337351
14376.0,-0.009426701829511348
14380.0,-0.010367080137529731
14384.0,0.0027855015834474155
14388.0,-0.009429513355367227
14392.0,0.0019595543101366543
14396.0,0.011891840667360607
14400.0,0.0121520843580658
14404.0,-0.008520280129387268
14408.0,0.0037899027672112567
14412.0,0.010688721224471459
14416.0,0.01119937982964693
14420.0,0.0011815881374541552
14424.0,-0.007792486952405905
14428.0,-0.009020925417114302
14432.0,-0.023973184134119134
14436.0,-0.000756345670933013
14440.0,-0.0076524062922292855
14444.0,-0.0027473759069698866
14448.0,0.004919362630072075
14452.0,-0.014770709334086796
14456.0,-0.01274837456989692
14460.0,-0.011971996960346953
14464.0,0.008264247892934978
14468.0,0.012852866651868862
14472.0,-0.009582385742095871
14476.0,0.0008593819666947117
14480.0,-0.007522912782907373
14484.0,0.00578001571874597
14488.0,0.03142024669959078
14492.0,0.05471066020569762
14496.0,0.10062378932405082
14500.0,0.12431463754001536
14504.0,0.15592351204661345
14508.0,0.1799119500288051
14512.0,0.18058418931285286
14516.0,0.2119773218686112
14520.0,0.21532599617662856
14524.0,0.22544423817914444
14528.0,0.2556340749608308
14532.0,0.2538625299005152
14536.0,0.2552110514410099
14540.0,0.23461010090190604
14544.0,0.23605687685240884
14548.0,0.2252963587823099
14552.0,0.21516468614240292
14556.0,0.1818853964675553
14560.0,0.17117156423772387
14564.0,0.15397302244512534
14568.0,0.12266389000031055
14572.0,0.08879615623694623
14576.0,0.08089765843924993
14580.0,0.0361264102140706
14584.0,0.0016591863636024832
14588.0,0.0005850358568745728
14592.0,-0.0015430347436876876
14596.0,0.006809919578048084
14600.0,0.013349082575769401
14604.0,0.0006019324136454395
14608.0,-0.0042572316148313406
14612.0,0.0016508094901606324
14616.0,-0.003642213198687031
14620.0,-0.010201911555363635
14624.0,0.002559471682147064
14628.0,-0.04253589530700399
14632.0,-0.0695339704157897
14636.0,-0.12364686327246976
14640.0,-0.1625742836498793
14644.0,-0.010086022396736335
14648.0,0.0929271714447879
14652.0,0.20770994750479443
14656.0,0.29916259087333513
14660.0,0.39722824036017307
14664.0,0.48892841610240045
14668.0,0.5830934002216864
14672.0,0.6882943228883235
14676.0,0.8098948259989637
14680.0,0.8965789496487047
14684.0,1.0111885776956668
14688.0,0.8974059426839746
14692.0,0.7875431471821274
14696.0,0.6797311967793358
14700.0,0.5928627361621215
14704.0,0.5142090414675682
14708.0,0.41423791966435575
14712.0,0.28353392655890963
14716.0,0.20057709961882286
14720.0,0.10317997377854107
14724.0,0.018585085745845564
14728.0,-0.07367889636439688
14732.0,-0.10478918429238135
14736.0,-0.18812591290833972
14740.0,-0.24791325397543926
14744.0,-0.30202969460593954
14748.0,-0.24131619947454805
14752.0,-0.19162407397843711
14756.0,-0.11122561948555239
14760.0,-0.05343030245882758
14764.0,-0.058743362793417
14768.0,-0.033968179729135045
14772.0,-0.031059162006257825
14776.0,-0.049541580195611376
14780.0,-0.05147276821162444
14784.0,-0.037741048319746416
14788.0,-0.021924565942089542
14792.0,-0.041726519244878246
14796.0,-0.029533716949007808
14800.0,-0.021050822781223492
14804.0,-0.012465967331536267
14808.0,-0.005244321298279286
14812.0,-0.02203133301254675
14816.0,-0.030438140549462145
14820.0,-0.02681722599856228
14824.0,-0.013131595434207917
14828.0,-0.01878106537191398
14832.0,-0.007908816953062352
14836.0,-0.003936529700328095
14840.0,-0.010250165935330983
14844.0,-0.0026150028990079978
14848.0,0.023727519330569373
14852.0,0.048593937943904736
14856.0,0.08279397156600603
14860.0,0.09234400302056871
14864.0,0.1026691847936699
14868.0,0.1250155407865774
14872.0,0.1565448082815513
14876.0,0.17000354492857253
14880.0,0.20006843516320805
14884.0,0.20697664184009595
14888.0,0.21732870465241064
14892.0,0.2541907344920881
14896.0,0.2469859646641151
14900.0,0.2718403483943999
14904.0,0.2588548481323253
14908.0,0.30797383925319016
14912.0,0.28603218455415774
14916.0,0.29507900815853294
14920.0,0.30042885130237246
14924.0,0.30008250606915304
14928.0,0.30504378180812436
14932.0,0.28122974242883364
14936.0,0.27882836143888745
14940.0,0.26593451318042555
14944.0,0.26906100066668726
14948.0,0.27871752921478776
14952.0,0.23513959863306255
14956.0,0.2357194819877828
14960.0,0.2289211084300933
14964.0,0.20092611798897558
14968.0,0.1916136621361273
14972.0,0.1859498582192721
14976.0,0.15117218893440723
14980.0,0.14465627703376166
14984.0,0.11146223304487424
14988.0,0.09650670165048122
14992.0,0.06234207423585034
14996.0,0.03642205811361708
15000.0,0.03049551501970347
15004.0,-0.010564324185160363
15008.0,-0.0004062800828190293
15012.0,0.012735423985759607
15016.0,-0.0034414276689584394
15020.0,0.002021777939158968
15024.0,-0.011798497643402562
15028.0,0.013803857999678797
15032.0,-0.014759282867114053
15036.0,-0.004707826080950689
15040.0,-0.016985714983217336
15044.0,-0.00115844899620967
15048.0,0.010220163750696563
15052.0,-0.0029347894764733245
15056.0,0.0012920773507825367
15060.0,0.0009697468319415252
15064.0,-0.012130417241306425
15068.0,-0.012286916001102691
15072.0,0.019035381148985453
15076.0,0.00749466315311771
15080.0,0.010805882541123215
15084.0,0.0035969847847621434
15088.0,0.00948455347818041
15092.0,0.0006752331326182288
15096.0,-0.0016731280197076874
15100.0,0.010113976926835544
15104.0,-0.017402122633094874
15108.0,0.002763643014259161
15112.0,0.0017385778098585648
15116.0,-0.01101898102053743
15120.0,0.011950090557435122
15124.0,0.008517093502034827
15128.0,-0.006677530404419282
15132.0,0.004431507735036102
15136.0,0.009514935532636121
15140.0,-0.009647462111829824
15144.0,0.01569335163228964
15148.0,0.00127481778552548
15152.0,0.019642961742282236
15156.0,0.048144622178002576
15160.0,0.07909336660545271
15164.0,0.11486511044838969
15168.0,0.14827998182629265
15172.0,0.1623461736338325
15176.0,0.19448216312297928
15180.0,0.20102516188193698
15184.0,0.23386741505919528
15188.0,0.24674737489111595
15192.0,0.25164799089125683
15196.0,0.22035546477043683
15200.0,0.2351523368321549
15204.0,0.2432530008180297
15208.0,0.2364107160929094
15212.0,0.2127720996803248
15216.0,0.18261105363292016
15220.0,0.1779887465326288
15224.0,0.17963223755599894
15228.0,0.12905823771252878
15232.0,0.1189823739703168
15236.0,0.08574018439493662
15240.0,0.05577487367479256
15244.0,0.024593820601179428
15248.0,0.003080716922326094
15252.0,-0.0027542338131253713
15256.0,0.005321416339379802
15260.0,0.00017501469043832823
15264.0,0.018324270682805236
15268.0,-0.01220926433638992
15272.0,-0.014244722062408724
15276.0,-0.020195828763066182
15280.0,0.010461671571185825
15284.0,-0.01668834323959402
15288.0,0.0029523506892182405
15292.0,-0.03267336930098556
15296.0,-0.08188981021422728
15300.0,-0.11998193905424318
15304.0,-0.14653666399086085
15308.0,-0.0072952035089368355
15312.0,0.07755278641768808
15316.0,0.2066326612517222
15320.0,0.276337384531693
15324.0,0.3940017817688648
15328.0,0.5002990302408571
15332.0,0.5920393226565137
15336.0,0.6956870270983165
15340.0,0.7691418426163472
15344.0,0.869755996253345
15348.0,0.9791922948021727
15352.0,0.8853421364858018
15356.0,0.7821626896455748
15360.0,0.6829507617187908
15364.0,0.5838204241730647
15368.0,0.4770952492764871
15372.0,0.38368199767893074
15376.0,0.2797005060662498
15380.0,0.22093511473172497
15384.0,0.08913335730930022
15388.0,-0.0008252903840547118
15392.0,-0.06035928222357583
15396.0,-0.12437066046674583
15400.0,-0.18338152256258025
15404.0,-0.23637474362790384
15408.0,-0.28503327003019174
15412.0,-0.2396626792810661
15416.0,-0.18520100910383228
15420.0,-0.10293989559243145
15424.0,-0.05699843698098596
15428.0,-0.04074355783457269
15432.0,-0.04687255807686727
15436.0,-0.04482919402743519
15440.0,-0.03234241702366181
15444.0,-0.037981430444560114
15448.0,-0.046451738515777004
15452.0,-0.049062507209330766
15456.0,-0.044122719199244514
15460.0,-0.02463492784022302
15464.0,-0.017175407902772798
15468.0,-0.01651783566002153
15472.0,-0.007503688638165281
15476.0,-0.035034737140811796
15480.0,-0.03827384081003232
15484.0,-0.028464243580792113
15488.0,-0.004564363219174678
15492.0,-0.028255331490611435
15496.0,-0.021517812456397452
15500.0,0.003165957793001109
15504.0,0.01252346290258927
15508.0,0.019415578121091872
15512.0,0.0110533934710902
15516.0,0.04953311347776933
15520.0,0.07816824239350317
15524.0,0.09272732035429805
15528.0,0.10580134987035486
15532.0,0.12478309813544028
15536.0,0.1454302403764331
15540.0,0.1613864552810813
15544.0,0.19653857599250116
15548.0,0.20811762511635512
15552.0,0.21164672458810047
15556.0,0.24910300877687358
15560.0,0.24744894702320464
15564.0,0.26543340076183675
15568.0,0.27343201549269264
15572.0,0.29934328967729973
15576.0,0.2895360184800172
15580.0,0.28739142728672473
15584.0,0.2941072573304649
15588.0,0.29616242633583734
15592.0,0.27226121303930356
15596.0,0.26809249027707205
15600.0,0.2822124420165063
15604.0,0.2759210823887297
15608.0,0.271925263773072
15612.0,0.2536555599158475
15616.0,0.2632825088220863
15620.0,0.22740465133902552
15624.0,0.21416089802787536
15628.0,0.2066452453926928
15632.0,0.19820385321856743
15636.0,0.17473073249201923
15640.0,0.14986189294496738
15644.0,0.12280033828199304
15648.0,0.10801732096362969
15652.0,0.09936017221509774
15656.0,0.06746097585424521
15660.0,0.05214743075761526
15664.0,0.020006906488556714
15668.0,0.01399573877921037
15672.0,-0.02247814089909996
15676.0,0.008407188458094942
15680.0,-0.016480799059574777
15684.0,-0.004893347246392946
15688.0,-0.006556438172419236
15692.0,-0.011569278629633518
15696.0,-0.009137699939843825
15700.0,-0.004425801424197748
15704.0,-0.013971141685048562
15708.0,-0.0001879108634289347
15712.0,-0.00897456060975949
15716.0,0.008481816751650884
15720.0,0.0028700077671143997
15724.0,-0.009028269923889023
15728.0,0.011573086763814537
15732.0,-0.00562467624489887
15736.0,0.005013592429563236
15740.0,0.009842900450953635
15744.0,0.0007617705806919686
15748.0,-0.007208745755712577
15752.0,0.001500282490268408
15756.0,0.002270409690604929
15760.0,-0.010004545412979236
15764.0,0.0038940130619449015
15768.0,-0.007123461249651713
15772.0,0.029399820974645552
15776.0,-0.010820107505374882
15780.0,0.010424722306983346
15784.0,-0.0146796555274515
15788.0,-0.014186156177231034
15792.0,-0.011134185104705588
15796.0,-0.005302823222125267
15800.0,0.0038230500083939536
15804.0,-0.014966710744998947
15808.0,-0.00525230574500459
15812.0,0.002700777449476114
15816.0,0.019882395266582625
15820.0,0.055818234489982896
15824.0,0.0932713350737079
15828.0,0.10817963922086099
15832.0,0.1278365612858827
15836.0,0.15186517537559954
15840.0,0.18507324123767732
15844.0,0.19266817032418648
15848.0,0.2213440217144493
15852.0,0.22134093562456242
15856.0,0.22862931564877625
15860.0,0.24452874491715054
15864.0,0.24979416046364944
15868.0,0.2410607676164868
15872.0,0.22811358183441388
15876.0,0.20429691991804136
15880.0,0.22287443264352794
15884.0,0.176834370317248
15888.0,0.15661161100517954
15892.0,0.13312727212855716
15896.0,0.11316651337480835
15900.0,0.08433280434589333
15904.0,0.061238720965697394
15908.0,0.0434407736211074
15912.0,0.009561629187925011
15916.0,-0.015527108065146409
15920.0,0.0034036995930448134
15924.0,0.004037315286494458
15928.0,-0.0010427319620151122
15932.0,-0.011214110829942885
15936.0,0.0062379927693143305
15940.0,-0.009190062592849404
15944.0,0.0045108021172864
15948.0,-0.004075888742850381
15952.0,0.0018569294346179738
15956.0,-0.051781997623129114
15960.0,-0.07986862160429584
15964.0,-0.1063885280117741
15968.0,-0.15041480493212728
15972.0,0.007156921498226696
15976.0,0.10118787646350164
15980.0,0.18180908138471732
15984.0,0.27526521175587126
15988.0,0.35755542834731163
15992.0,0.471923804382472
15996.0,0.5774208450341205
16000.0,0.6784950362936565
16004.0,0.7692497701168366
16008.0,0.8660314223377833
16012.0,0.9538787872120021
16016.0,0.8566504004334805
16020.0,0.764958967062204
16024.0,0.6652545746991521
16028.0,0.5697913569346922
16032.0,0.46986840197775226
16036.0,0.3886547563277938
16040.0,0.2885960966171134
16044.0,0.20086554628037565
16048.0,0.08920569959244391
16052.0,0.015280831704285682
16056.0,-0.060768031734718564
16060.0,-0.11132469397425823
16064.0,-0.17272448310181768
16068.0,-0.23161770416444327
16072.0,-0.2750491229616955
16076.0,-0.21923168353189892
16080.0,-0.18085746802198258
16084.0,-0.1235462782708609
16088.0,-0.06199503741808187
16092.0,-0.04049716282634484
16096.0,-0.058545295507544524
16100.0,-0.03310128632951538
16104.0,-0.050435261249601765
16108.0,-0.03902966184363613
16112.0,-0.04344049014843517
16116.0,-0.03597132997942112
16120.0,-0.027865380177785688
16124.0,-0.03428789813972208
16128.0,-0.014830104410149437
16132.0,-0.024954801432289956
16136.0,-0.019401882030179708
16140.0,-0.023366670925859753
16144.0,-0.01580291349441094
16148.0,-0.020872775310776075
16152.0,-0.01840811756977652
16156.0,-0.019851086855628367
16160.0,0.004221878399841085
16164.0,0.009726514646400942
16168.0,-0.0025971359464598493
16172.0,-0.0005210457473693664
16176.0,0.01796345776058403
16180.0,0.04184009256446521
16184.0,0.05684291214124808
16188.0,0.10102603841586515
16192.0,0.10518548746809578
16196.0,0.15062602379919088
16200.0,0.12239664739451654
16204.0,0.1688541906612727
16208.0,0.18975319610119515
16212.0,0.19550484586549488
16216.0,0.22637882557383937
16220.0,0.20995186608261285
16224.0,0.23223161237844833
16228.0,0.2561125442170171
16232.0,0.2591864095311763
16236.0,0.2705151757970943
16240.0,0.27912090763468655
16244.0,0.27562397105977127
16248.0,0.28747201834444447
16252.0,0.28096380103870144
16256.0,0.27278992370791
16260.0,0.2864357943630213
16264.0,0.27345486447915773
16268.0,0.2708150114065457
16272.0,0.25824449170072017
16276.0,0.2508575145395055
16280.0,0.23663574750061206
16284.0,0.23167399508997563
16288.0,0.20749711639956966
16292.0,0.1958594883410059
16296.0,0.17089854401926757
16300.0,0.1502438225419619
16304.0,0.16968054945195507
16308.0,0.12975784363724227
16312.0,0.10462810411852502
16316.0,0.08752930285905634
16320.0,0.08151394943604534
16324.0,0.06575394993525208
16328.0,0.0051612545687275725
16332.0,0.0036280304928800705
16336.0,-0.011374002027427364
16340.0,0.004551184494711115
16344.0,-0.015848688597727013
16348.0,-0.0040446025646027955
16352.0,0.003981152389557645
16356.0,0.010474954614710003
16360.0,0.013115276416066652
16364.0,-0.003929039059099722
16368.0,-0.00036770278447603814
16372.0,0.004294242025792592
16376.0,0.021269477490832658
16380.0,0.0013800890311732109
16384.0,-0.02296046939597381
16388.0,0.0055798925898436855
16392.0,0.007395122465819596
16396.0,-0.008720259567565206
16400.0,-0.0013694863865594282
16404.0,0.0030952911388351977
16408.0,-0.002085714342224614
16412.0,-0.0008908813976386661
16416.0,0.00291774732602403
16420.0,-0.010916255266141374
16424.0,-0.017343958418625932
16428.0,0.0028646241145258073
16432.0,0.008648289489196222
16436.0,0.005072559186561196
16440.0,0.01074555555898016
16444.0,0.01193457611797173
16448.0,-0.011798550853927017
16452.0,-0.003723383454114401
16456.0,-0.0026467488621881073
16460.0,-0.008819155693839427
16464.0,-1.7529554463741828e-05
16468.0,0.001504322008152625
16472.0,0.002850544353961382
16476.0,0.005431113852776102
16480.0,0.041256606789111076
16484.0,0.06091887290258176
16488.0,0.09157996815785747
16492.0,0.12746079817985378
16496.0,0.14851499253259515
16500.0,0.1696110608354802
16504.0,0.17843467407473695
16508.0,0.18683849138469616
16512.0,0.21547600816010953
16516.0,0.22128395394488523
16520.0,0.22444804858911493
16524.0,0.25917098357661394
16528.0,0.23699048539701678
16532.0,0.2451080781714185
16536.0,0.23364726781228004
16540.0,0.22637264744947833
16544.0,0.2086220224952165
16548.0,0.1957522182008702
16552.0,0.18460054005005583
16556.0,0.1406178409988705
16560.0,0.11107950469334056
16564.0,0.06634440453895
16568.0,0.0745854812709672
16572.0,0.030840536089925884
16576.0,-0.0005057754420825509
16580.0,0.005554644356369428
16584.0,0.003914155996146252
16588.0,0.018043998017450207
16592.0,0.0023010847021631906
16596.0,0.0032033892532501557
16600.0,0.004810677495561782
16604.0,-0.01833473379098969
16608.0,0.018796661371966724
16612.0,0.0013444497230425201
16616.0,0.0032331759806886163
16620.0,-0.0353866918671669
16624.0,-0.08771947162963345
16628.0,-0.11395837775976288
16632.0,-0.1512438476867683
16636.0,0.00820008102314344
16640.0,0.09624254261091954
16644.0,0.18093806878687893
16648.0,0.29099040285951044
16652.0,0.38361896564954284
16656.0,0.4720167005889474
16660.0,0.5661720530744038
16664.0,0.6799109014863189
16668.0,0.7710062209743136
16672.0,0.8545786343598581
16676.0,0.9647577938365152
16680.0,0.8565818219389418
16684.0,0.7660047702119438
16688.0,0.641393972114866
16692.0,0.5820951510446799
16696.0,0.4680155349099291
16700.0,0.3929843155387953
16704.0,0.2983839516584038
16708.0,0.20051752551388619
16712.0,0.10082775630982907
16716.0,-0.007149633177721906
16720.0,-0.0702865125772048
16724.0,-0.12325437704296159
16728.0,-0.18273987594164964
16732.0,-0.22824940735255625
16736.0,-0.2982453172447898
16740.0,-0.2269386747782336
16744.0,-0.17362588955906189
16748.0,-0.10953069218228298
16752.0,-0.05067580870864336
16756.0,-0.057421911731847006
16760.0,-0.03179848630474594
16764.0,-0.060339652056755774
16768.0,-0.04685070297557428
16772.0,-0.03970403166013897
16776.0,-0.04671146834619946
16780.0,-0.03931243611771913
16784.0,-0.042987975873746226
16788.0,-0.0333547756758522
16792.0,-0.0320105943538621
16796.0,-0.026675362714592876
16800.0,-0.004317822821083006
16804.0,-0.007129804647201128
16808.0,-0.014619995264611312
16812.0,-0.018780357413383804
16816.0,-0.028629956646733415
16820.0,0.00809611466687949
16824.0,-0.019491230545217543
16828.0,-0.010243849655567145
16832.0,-0.0003649446498763609
16836.0,0.005508523365237744
16840.0,0.02627499188630223
16844.0,0.03642996623224309
16848.0,0.06552573259717794
16852.0,0.09155330066525097
16856.0,0.11380219178012731
16860.0,0.12287789083504094
16864.0,0.14499786198608142
16868.0,0.16793319154808284
16872.0,0.19226622350045078
16876.0,0.19822599004265706
16880.0,0.22975349130710393
16884.0,0.23410551446151542
16888.0,0.24929772077380052
16892.0,0.24432948019817077
16896.0,0.2657068032919038
16900.0,0.2702151779539115
16904.0,0.28593068303036034
16908.0,0.27691134129043943
16912.0,0.2765828554296311
16916.0,0.2952175571043178
16920.0,0.28025099270796133
16924.0,0.2888998440796093
16928.0,0.2775008540299671
16932.0,0.25998674753699647
16936.0,0.27145111116280696
16940.0,0.23819720738422162
16944.0,0.26552754515105387
16948.0,0.22944034329813595
16952.0,0.24369632189083218
16956.0,0.207498054948268
16960.0,0.17356193442688056
16964.0,0.16417884914619535
16968.0,0.15251812842470186
16972.0,0.13458876832745043
16976.0,0.11897374318058555
16980.0,0.09075029361697272
16984.0,0.051122722173050354
16988.0,0.044529073058343874
16992.0,0.017415969421580958
16996.0,-0.010657966223048612
17000.0,0.013899925522900751
17004.0,0.004563179145170667
17008.0,0.0013827099948200334
17012.0,-0.00015580018377900074
17016.0,0.00687850057635736
17020.0,-0.019399978106327074
17024.0,-0.009155047555115335
17028.0,-0.0009674661591413708
17032.0,0.012900937644733332
17036.0,0.0115523673838055
17040.0,0.0021269102485615486
17044.0,-0.003096395381176897
17048.0,0.0024204102156173764
17052.0,0.004004660358996968
17056.0,0.013370356711731504
17060.0,-0.004417873702836284
17064.0,0.008442512543616332
17068.0,0.0009033331152868974
17072.0,-0.01121656580005904
17076.0,0.010354406386659118
17080.0,0.0024415854260388388
17084.0,-0.005589759216967718
17088.0,0.011207661476593196
17092.0,-0.02532798568810371
17096.0,0.005818410949713301
17100.0,-0.002478603130357249
17104.0,0.019510654380846634
17108.0,-0.0036009551230580905
17112.0,0.015532701694386326
17116.0,0.00607410328467504
17120.0,-0.006003961295680705
17124.0,0.013004201755496953
17128.0,-0.006031745416053639
17132.0,-0.006888034640922129
17136.0,0.0015039878786408866
17140.0,0.006306128417893479
17144.0,0.010037803286525697
17148.0,0.047382827879064934
17152.0,0.09806066539075003
17156.0,0.13558270174080275
17160.0,0.14451396104732162
17164.0,0.17318101463506103
17168.0,0.17464303071723147
17172.0,0.2157100906129633
