time,value
0.0,-0.007523309618935745
4.0,-0.05262155048905857
8.0,0.009253954497315342
12.0,0.02215199115088944
16.0,0.022688227107332433
20.0,0.001378234832097825
24.0,0.003328824951209825
28.0,0.043249670793054654
32.0,-0.01101882175986104
36.0,-0.016722390210365617
40.0,-0.021445250377700113
44.0,-0.007805789363792069
48.0,-0.0306482860151625
52.0,0.023463543019058494
56.0,-0.022607423558645486
60.0,0.012123405724275949
64.0,-0.01520957263182313
68.0,-0.013562003895832671
72.0,0.0011377026687946117
76.0,0.020411553148198952
80.0,-0.03359658208446792
84.0,0.0068793951398146425
88.0,-0.033414070077295674
92.0,-0.06784849401155153
96.0,0.018768121914660745
100.0,-0.010580172457849164
104.0,0.02012273882953202
108.0,0.024562250802149237
112.0,-0.02795017338234148
116.0,-0.03636818457736592
120.0,0.002106763360187454
124.0,0.0367882105126446
128.0,0.03645040588932493
132.0,-0.008961624548257328
136.0,0.008872018251387373
140.0,-0.016439405283042816
144.0,0.018894533063610216
148.0,-0.011696207488396488
152.0,-0.009677689001036943
156.0,-0.00650780882262214
160.0,0.03343437724163988
164.0,0.011183310224623925
168.0,0.013130172722864333
172.0,0.01251254002650631
176.0,-0.034489524700585514
180.0,0.03868206310966658
184.0,0.008778431327138842
188.0,-0.02065072651125702
192.0,0.040105696056979785
196.0,-0.004021211296976778
200.0,0.05485526741897754
204.0,0.027196533914726935
208.0,-0.012665012910539057
212.0,-0.021086009245152422
216.0,0.010927553097102817
220.0,0.01813791904459904
224.0,0.05918771684042852
228.0,-0.003571353064608621
232.0,0.038188065993373925
236.0,0.01658797683082249
240.0,0.053933294900509916
244.0,0.0016698407952924386
248.0,0.06150518877740897
252.0,0.0069620162121492996
256.0,-0.05489824833834698
260.0,-0.007471055930874507
264.0,0.018706015717411695
268.0,-0.013088871927694559
272.0,0.022431323120702996
276.0,0.02347285666083712
280.0,-0.035904349803809486
284.0,0.0143824024806188
288.0,-0.02033685273263339
292.0,-0.03330577990363093
296.0,0.006154649411741213
300.0,0.03507983552671762
304.0,-0.026581613045773576
308.0,0.03561007514509562
312.0,-0.0006063841712827781
316.0,0.06959454403774958
320.0,-0.06621678146352449
324.0,-0.047507741504841064
328.0,-0.028167942824304334
332.0,-0.002539723762381252
336.0,-0.031005506788724126
340.0,0.02798008456187552
344.0,-0.02111338783341525
348.0,-0.054182717887613197
352.0,0.007920074699866195
356.0,0.010584512143541475
360.0,0.016842597215308792
364.0,-0.038374801401551584
368.0,0.007994797402107397
372.0,-0.025219219056980446
376.0,-0.026455840862575537
380.0,-0.04366409198200469
384.0,-0.02523293975475118
388.0,-0.02869469419765428
392.0,0.00646657510541275
396.0,-0.00322073985701441
400.0,-0.014440628272698968
404.0,0.020265089799775107
408.0,0.013892115387533427
412.0,0.0020778664697048738
416.0,0.03276160964700446
420.0,-0.004238420945622584
424.0,-0.018893831670112195
428.0,0.03813515951808712
432.0,-0.024906310603660133
436.0,-0.04418700277963741
440.0,0.006156859392234781
444.0,-0.05701589791891617
448.0,0.0006415785982062786
452.0,-0.006064963519814552
456.0,0.052092909512320394
460.0,-0.02978149130073324
464.0,0.003394937376724362
468.0,-0.003239711938961445
472.0,0.03568537727739068
476.0,-0.02574340692133191
480.0,0.022291059493228942
484.0,0.021008264361195676
488.0,-0.00999477818997993
492.0,0.04912507702587735
496.0,0.017620120442406212
500.0,-0.05878397133885556
504.0,-0.002325378186332385
508.0,-0.02440095462739999
512.0,0.015486983721999704
516.0,0.015535653169643556
520.0,0.040591441001846855
524.0,-0.03719918714960611
528.0,0.0378761394688037
532.0,0.0014506974149648634
536.0,-0.041062836340507114
540.0,-0.036879591813705294
544.0,0.0537062912693671
548.0,0.0846809747498876
552.0,0.08561532279172697
556.0,0.10934847318529331
560.0,0.1596412599815502
564.0,0.18463675015803507
568.0,0.1637111809515845
572.0,0.21882119952209816
576.0,0.2352637837702936
580.0,0.22059672370415598
584.0,0.2546293602893044
588.0,0.25498858477345543
592.0,0.234408122042226
596.0,0.28681120157769596
600.0,0.2539293518465729
604.0,0.22014203099740026
608.0,0.2455556113055803
612.0,0.20105085751644292
616.0,0.17123710786686108
620.0,0.20541368053966924
624.0,0.11530867744178953
628.0,0.10963816469369284
632.0,0.08797595213615536
636.0,0.01028732944860904
640.0,-0.03388215118625574
644.0,-0.02186186033295291
648.0,0.03846120011067203
652.0,0.015902053229974494
656.0,0.02825299344301626
660.0,0.058655348377470086
664.0,-0.021818371198203897
668.0,-0.027545003014047206
672.0,-0.029464315521097833
676.0,9.596644506865775e-05
680.0,0.026997743667577925
684.0,-0.06741128434235222
688.0,-0.05347910755099036
692.0,-0.11487390416681413
696.0,-0.16550067908994184
700.0,0.041449747984139154
704.0,0.15740425179080272
708.0,0.1785623861527943
712.0,0.34520201902427167
716.0,0.3801178801782653
720.0,0.5022726660546541
724.0,0.6532041560418289
728.0,0.6903039958843181
732.0,0.805330395469535
736.0,0.8716698353509816
740.0,0.9589478632797719
744.0,0.8942778262752684
748.0,0.8455844517225951
752.0,0.7151836528066042
756.0,0.5755865914118367
760.0,0.46205477049965243
764.0,0.4144048355281522
768.0,0.25806475340080826
772.0,0.232071956200231
776.0,0.1047644534414496
780.0,-0.004975724141206336
784.0,-0.006518034879690021
788.0,-0.19707388515122762
792.0,-0.0948658470358807
796.0,-0.2649024542277705
800.0,-0.29944935632021696
804.0,-0.1815932709234697
808.0,-0.16332649994387002
812.0,-0.14225247343001468
816.0,-0.06656336485823441
820.0,-0.08747330373229421
824.0,-0.016234509818202437
828.0,-0.05343183926418605
832.0,-0.05579288989360353
836.0,-0.03987229056586804
840.0,-0.009140047139552465
844.0,0.013235298661162888
848.0,-0.02611035001359117
852.0,-0.010242721558718037
856.0,-0.012758618288191614
860.0,-0.024626017872086015
864.0,-0.006313885859215346
868.0,-0.05909193772966004
872.0,-0.026530925788611742
876.0,-0.002680528396419758
880.0,0.03228647151465075
884.0,-0.024997234481952187
888.0,-0.006980265606160538
892.0,0.01925584709610185
896.0,0.03546697656086167
900.0,-0.002107972939976226
904.0,0.027098693709291483
908.0,0.022448679808150445
912.0,0.05797092439525817
916.0,0.141435459532259
920.0,0.17850603069736284
924.0,0.12229104067489102
928.0,0.15168007003385667
932.0,0.18878783756871176
936.0,0.20201970573837705
940.0,0.2256027418897375
944.0,0.2693472871325358
948.0,0.21455840184486086
952.0,0.20133615105261288
956.0,0.2657858552275549
960.0,0.275116889353834
964.0,0.3245196585977571
968.0,0.33306284274086895
972.0,0.2795843771657227
976.0,0.273843816099315
980.0,0.3345150312304323
984.0,0.3368391877037833
988.0,0.36298812177962486
992.0,0.2604288903831005
996.0,0.26131742887296083
1000.0,0.3116178211627232
1004.0,0.2614978995428232
1008.0,0.27244081873288417
1012.0,0.22420312047886817
1016.0,0.2732063572691763
1020.0,0.18715693475043613
1024.0,0.23150861441047188
1028.0,0.18534930580408945
1032.0,0.14800900632885888
1036.0,0.13925460137257661
1040.0,0.08944791643914361
1044.0,0.09935714696313766
1048.0,0.03349907383224246
1052.0,0.08799008581550274
1056.0,0.03475577073879819
1060.0,0.03550985757070522
1064.0,-0.0035864270345950695
1068.0,-0.01159705067126204
1072.0,-0.05034392643607304
1076.0,-0.005839895291253971
1080.0,0.07512817609638478
1084.0,-0.004938197031438303
1088.0,-0.012516151471122252
1092.0,-0.025866760078351907
1096.0,-0.004732530582254321
1100.0,-0.0012460400481231725
1104.0,0.04702546238987292
1108.0,-0.031337796910580897
1112.0,0.003383362895142783
1116.0,0.021677029213682843
1120.0,-0.004220905268004712
1124.0,0.003741829022815102
1128.0,-0.040922036266830754
1132.0,0.05210072966684174
1136.0,0.016609076553787547
1140.0,0.0022051322831869134
1144.0,0.02169973058801058
1148.0,0.005262609115791995
1152.0,-0.004674310075989569
1156.0,0.0023102882839305407
1160.0,-0.012379602753712624
1164.0,-0.03967633750490116
1168.0,0.006723147007857375
1172.0,-0.034287316903178856
1176.0,0.031892170387171556
1180.0,-0.004162378059646892
1184.0,-0.00565766004273097
1188.0,0.009952788086648375
1192.0,0.028656167969622805
1196.0,-0.017500808523370878
1200.0,-0.024008625335919118
1204.0,0.005447447020344399
1208.0,0.030880587961396092
1212.0,0.013821934477799244
1216.0,-0.008897610797419539
1220.0,0.0005000982154282188
1224.0,-0.0075912654680142175
1228.0,0.030598280909425766
1232.0,0.00762214065970981
1236.0,-0.0036674548689819312
1240.0,-0.011617296249782348
1244.0,0.032909968268241704
1248.0,-0.06627475699404979
1252.0,-0.007713297254566406
1256.0,0.072631140647613
1260.0,0.0055067377032180535
1264.0,0.022566914026878285
1268.0,0.0017259731868497588
1272.0,0.010145330535302848
1276.0,-0.017526805259066712
1280.0,0.03122150736638922
1284.0,0.056820190191488484
1288.0,-0.012021732934819248
1292.0,0.008920378350887243
1296.0,-0.06334339917735485
1300.0,0.00808006930824608
1304.0,0.00954656705853401
1308.0,-0.0028566109925685598
1312.0,0.02246540128273897
1316.0,0.03713028734539745
1320.0,-0.02055485823500987
1324.0,0.011789782829930647
1328.0,-0.042005633420586226
1332.0,-0.015440747880984367
1336.0,0.0208161087467007
1340.0,0.025017460555721755
1344.0,0.03541600614868068
1348.0,0.07312672631577835
1352.0,0.09356912826205792
1356.0,0.14334838078674036
1360.0,0.14123795970558092
1364.0,0.19341348245620266
1368.0,0.16832634589900108
1372.0,0.20022854658822625
1376.0,0.24196486883439183
1380.0,0.2754946938486307
1384.0,0.22290407358612388
1388.0,0.19341502491065196
1392.0,0.2637652735922197
1396.0,0.23512816649162446
1400.0,0.253003831950818
1404.0,0.22629475789695647
1408.0,0.22306163385073893
1412.0,0.19109757112414263
1416.0,0.19864544345183768
1420.0,0.17277671979323472
1424.0,0.12563674729773155
1428.0,0.14900674896224647
1432.0,0.14322497227403858
1436.0,0.0207136166216512
1440.0,-0.011502729335380945
1444.0,0.027610636817902063
1448.0,-0.06769413166397159
1452.0,0.011840911940732259
1456.0,-0.010376778197510452
1460.0,-0.03869524574766425
1464.0,0.005883092518495443
1468.0,-0.05392997640071775
1472.0,0.00967985622643461
1476.0,0.00524052828717891
1480.0,-0.02839457480475577
1484.0,0.008199069332016522
1488.0,-0.10636243397488923
1492.0,-0.05813820265569922
1496.0,-0.11133782711129762
1500.0,0.012344760151041176
1504.0,0.10025902811246948
1508.0,0.173786113633775
1512.0,0.30608179285351744
1516.0,0.4008237496886476
1520.0,0.5085025132416641
1524.0,0.5727163097804076
1528.0,0.679022143865214
1532.0,0.7750354268032046
1536.0,0.8804181998512591
1540.0,0.9277717809726442
1544.0,0.8999484772767585
1548.0,0.7532420714292274
1552.0,0.7425104434351368
1556.0,0.6342488827807052
1560.0,0.45214791595567455
1564.0,0.38932035893977973
1568.0,0.2736698265089713
1572.0,0.1655254863262588
1576.0,0.13175647989896647
1580.0,-0.00959377252971708
1584.0,-0.06317590207841195
1588.0,-0.14862517713058004
1592.0,-0.20370144790490685
1596.0,-0.23019972194321894
1600.0,-0.2772504425433587
1604.0,-0.3091651335945912
1608.0,-0.21282861095363448
1612.0,-0.0757204907829018
1616.0,-0.05610254632256016
1620.0,-0.038282849980662066
1624.0,-0.03997745454718898
1628.0,-0.04768100712531228
1632.0,-0.04788378851117068
1636.0,-0.06888427951631766
1640.0,-0.036816344549591026
1644.0,-0.024120396219349645
1648.0,-0.0002612011345405063
1652.0,0.0022053231007815345
1656.0,-0.03050465206542747
1660.0,-0.03553471352448989
1664.0,-0.03970871931948177
1668.0,0.000858312973649529
1672.0,-0.10546252613906007
1676.0,-0.029764031736916656
1680.0,0.017149172775688705
1684.0,-0.03758580663578277
1688.0,-0.021002550207906506
1692.0,-0.01300814673783543
1696.0,0.006733178961431784
1700.0,0.03714581086024461
1704.0,0.04076536513977566
1708.0,0.062272163278882055
1712.0,0.07330907036051497
1716.0,0.08398585555542015
1720.0,0.10155234503341463
1724.0,0.0992872651802632
1728.0,0.12087415934531213
1732.0,0.12494529714987636
1736.0,0.14692013181563335
1740.0,0.17406118547373522
1744.0,0.24405727270172034
1748.0,0.2470503417359592
1752.0,0.26011900233934787
1756.0,0.2432260924904885
1760.0,0.2666195680590366
1764.0,0.2699798184785311
1768.0,0.23841942165754235
1772.0,0.31611394162447415
1776.0,0.3123714090186439
1780.0,0.32540024717106225
1784.0,0.2731201711139418
1788.0,0.301922592464927
1792.0,0.2806004260571632
1796.0,0.24751792999446434
1800.0,0.2393807606657523
1804.0,0.2010428157810406
1808.0,0.2177088349527075
1812.0,0.18952799142507465
1816.0,0.21421960600525777
1820.0,0.2134243796640124
1824.0,0.17344813258223085
1828.0,0.18157552592332538
1832.0,0.1219029220893014
1836.0,0.16084887830255287
1840.0,0.08826629178948545
1844.0,0.060930643569933815
1848.0,0.0393126150418856
1852.0,0.013333755721460706
1856.0,0.021189435606898354
1860.0,-0.04485957083990724
1864.0,0.033225223897177886
1868.0,0.008549104305692858
1872.0,0.029418497664476094
1876.0,-0.01081487997950609
1880.0,0.020339070724349477
1884.0,-0.017796718896549078
1888.0,0.04179773746387868
1892.0,-0.028456571774666505
1896.0,0.011263489490731048
1900.0,0.017623749192382812
1904.0,-0.016466383902927706
1908.0,0.013065335312675168
1912.0,0.022115161748740085
1916.0,0.02600481950432636
1920.0,-0.024866676337678088
1924.0,-0.007425080434564852
1928.0,0.001083136996255068
1932.0,-0.0557384111226327
1936.0,0.02703319459955184
1940.0,0.022761541851786693
1944.0,-0.01169484789698495
1948.0,0.0033417651383231186
1952.0,0.03677137598915811
1956.0,-0.026871426969912796
1960.0,0.00084600870696898
1964.0,0.02948928639257486
1968.0,0.016171920619622155
1972.0,0.016620357074920045
1976.0,-0.007322877701889929
1980.0,-0.01838962930527776
1984.0,0.003190343562470271
1988.0,0.04269600679610974
1992.0,-0.016613324419414658
1996.0,-0.016905475663059038
2000.0,0.018589219203838648
2004.0,0.058502880847927374
2008.0,0.019540010731064622
2012.0,0.012802908337352847
2016.0,-0.004432109150071686
2020.0,0.021259143434467977
2024.0,0.010159547728500582
2028.0,-0.04689639948459906
2032.0,0.0009485026957290783
2036.0,0.021153107613797784
2040.0,0.03345835545398032
2044.0,0.00819114074258579
2048.0,-0.03074642012419034
2052.0,0.057966535805010905
2056.0,0.035148297810361634
2060.0,0.03782035517974159
2064.0,-0.058163085112468024
2068.0,0.041150855856960177
2072.0,-0.012205893823187422
2076.0,-0.035730562809766026
2080.0,-0.019484542726596887
2084.0,-0.034630713522173624
2088.0,0.0012776025619866565
2092.0,0.023319734071523046
2096.0,0.023140930436014166
2100.0,-0.01881877539504404
2104.0,0.04097538416511332
2108.0,0.01251056270606473
2112.0,0.026717708889776894
2116.0,-0.03525311855160665
2120.0,-0.09455183561926242
2124.0,-0.023761489364895024
2128.0,0.0020658059534014893
2132.0,-0.03191124667022475
2136.0,0.021135084951554934
2140.0,0.010442638136793516
2144.0,0.06355651746311873
2148.0,0.04783468632839451
2152.0,0.11303624882018196
2156.0,0.14992758769409995
2160.0,0.1646899060200191
2164.0,0.16153799374811895
2168.0,0.19159248842543106
2172.0,0.20152080490739094
2176.0,0.18255414303537393
2180.0,0.23516797373381274
2184.0,0.23448551376065602
2188.0,0.2378268282894726
2192.0,0.29217372098203076
2196.0,0.22699191114545847
2200.0,0.2190833455015398
2204.0,0.16262920001591286
2208.0,0.23326665910981895
2212.0,0.19843193017795213
2216.0,0.19715875820326068
2220.0,0.16643517349545647
2224.0,0.07337599124890073
2228.0,0.12362674056064664
2232.0,0.028822286506730292
2236.0,0.06457461443543472
2240.0,0.04184483112326926
2244.0,0.005554078295824098
2248.0,-0.03387952661700359
2252.0,-0.055398857421575416
2256.0,-0.0034777164813369343
2260.0,-0.040785211522228526
2264.0,0.018068240675389553
2268.0,0.04153200322820445
2272.0,0.0552276280474192
2276.0,0.0013052364657090438
2280.0,0.04248462703222836
2284.0,-0.03324423375107381
2288.0,-0.05977793622708237
2292.0,-0.10039104789654375
2296.0,-0.12140703535445353
2300.0,0.017900425275263226
2304.0,0.11970018567664602
2308.0,0.24149005011195895
2312.0,0.27315782574059266
2316.0,0.35090578023812535
2320.0,0.4499149329365134
2324.0,0.6135074660729573
2328.0,0.6445690537902126
2332.0,0.7636743893286586
2336.0,0.8993330656763028
2340.0,0.990097458027236
2344.0,0.7960729119381088
2348.0,0.8208891093004718
2352.0,0.6506501475552096
2356.0,0.5826203054656318
2360.0,0.5347777027608357
2364.0,0.40407611609267247
2368.0,0.2879149654475218
2372.0,0.17343221743072107
2376.0,0.09353133659203805
2380.0,0.0195769617270595
2384.0,-0.0332628918229887
2388.0,-0.08546785010776259
2392.0,-0.1484919345867552
2396.0,-0.23838592870068617
2400.0,-0.29177424553434533
2404.0,-0.29496540137264166
2408.0,-0.233388990526663
2412.0,-0.13023044004448145
2416.0,-0.07573862425704406
2420.0,-0.034150791172858894
2424.0,-0.030840138519034187
2428.0,-0.03124233968941493
2432.0,-0.010870734303395684
2436.0,-0.0515122639767477
2440.0,-0.008730369740854116
2444.0,-0.013142916464180199
2448.0,-0.0994863110734406
2452.0,-0.03267646230089056
2456.0,-0.017247237345838023
2460.0,-0.01892663482105287
2464.0,-0.04170759995427083
2468.0,-0.03757025573393201
2472.0,-0.03758618656071849
2476.0,-0.04733054521813742
2480.0,-0.0636150101731861
2484.0,-0.05141026723317923
2488.0,0.03099701304091977
2492.0,-0.031133952852506277
2496.0,0.04147962845302072
2500.0,0.029664130596476018
2504.0,-0.003324413495832221
2508.0,0.11344846210609622
2512.0,0.07349312449014102
2516.0,0.05444748154402121
2520.0,0.14720806241522263
2524.0,0.13928327479141123
2528.0,0.13440040860730557
2532.0,0.17033010722334888
2536.0,0.18349081929377942
2540.0,0.18044586970647677
2544.0,0.20664912786088901
2548.0,0.20071671928267598
2552.0,0.22963936515514316
2556.0,0.23825049024153006
2560.0,0.28194591812524994
2564.0,0.2594538447308387
2568.0,0.3039080098987528
2572.0,0.24717902117419716
2576.0,0.3280666901007025
2580.0,0.27622508321407696
2584.0,0.2572510601979862
2588.0,0.28881291425265393
2592.0,0.27003992011993916
2596.0,0.2787607229501038
2600.0,0.2643513360505177
2604.0,0.24646816379001255
2608.0,0.24690897186974453
2612.0,0.21235234918773055
2616.0,0.2467555194761972
2620.0,0.2103774589886195
2624.0,0.18381681838883704
2628.0,0.12695260398533292
2632.0,0.09479449683447039
2636.0,0.1093446223911016
2640.0,0.1172377179279054
2644.0,0.08196015254163311
2648.0,0.09453216514124435
2652.0,0.03297369641003247
2656.0,0.045619689781821626
2660.0,-0.02798902498397016
2664.0,0.027073862057792504
2668.0,0.009553722710113212
2672.0,-0.027888849679529815
2676.0,0.010877079398155748
2680.0,-0.005698977404854233
2684.0,-0.027605810711403965
2688.0,-0.049806677764459954
2692.0,0.007946475237200656
2696.0,-0.003729693013647433
2700.0,-0.005396966719386511
2704.0,-0.02727706092560948
2708.0,0.0031358725694729207
2712.0,0.04882587381072295
2716.0,0.005430926001216353
2720.0,-3.124341138633943e-05
2724.0,0.01965388590996588
2728.0,-0.03837914522543085
2732.0,0.09360328189624181
2736.0,0.037447055617443506
2740.0,-0.008587101866365823
2744.0,0.0073198901544342014
2748.0,-0.03762903351700271
2752.0,-0.021352443961334733
2756.0,0.020816585918807126
2760.0,0.027642781862730163
2764.0,0.015409493581562995
2768.0,0.02514079834682042
2772.0,-0.019883852585586666
2776.0,-0.06471957977813261
2780.0,-0.025083238279018184
2784.0,0.016624036544816548
2788.0,-0.011521508654171049
2792.0,-0.01968962447890025
2796.0,-0.042867276489467934
2800.0,-0.039538456378723934
2804.0,0.03817377914895646
2808.0,-0.013782031648606146
2812.0,0.000839119146300275
2816.0,0.00042794788881160957
2820.0,0.037891167465242834
2824.0,0.012663586833056672
2828.0,0.006547127572046609
2832.0,0.02601057414096905
2836.0,0.020989713183705933
2840.0,-0.012321880864604862
2844.0,0.006825618320785196
2848.0,0.009929789115934704
2852.0,0.023293295478897785
2856.0,-0.0002975772825895516
2860.0,-0.007766658831467207
2864.0,-0.005370837466947912
2868.0,-0.04193856199427908
2872.0,0.005181360152320352
2876.0,-0.01596938644035419
2880.0,0.007975017050790772
2884.0,-0.025675018945606566
2888.0,0.05756701583109126
2892.0,-0.006160552648592006
2896.0,-0.019073821749789173
2900.0,0.04174741351529117
2904.0,0.0029886641706523462
2908.0,-0.011853278372883715
2912.0,0.060528472280943456
2916.0,0.07822055811310087
2920.0,-0.02135280932177923
2924.0,0.028381427897239034
2928.0,-0.035389400371100256
2932.0,-0.06726604515423129
2936.0,-0.031130631743888137
2940.0,-0.059597433346026234
2944.0,-0.040693815088034886
2948.0,0.06673353971446064
2952.0,0.04866959693421558
2956.0,0.16251015252813242
2960.0,0.20720734640108332
2964.0,0.194248640316643
2968.0,0.19758207287430662
2972.0,0.19313788090308198
2976.0,0.1992952700619216
2980.0,0.21673465124116065
2984.0,0.24013632909130522
2988.0,0.24395281990806744
2992.0,0.2452707696368399
2996.0,0.2808174505757897
3000.0,0.2417159371037237
3004.0,0.21489169092156044
3008.0,0.207196430677921
3012.0,0.15273753127333842
3016.0,0.21393179315548022
3020.0,0.18494582861885114
3024.0,0.117349713712202
3028.0,0.07300243547642449
3032.0,0.077256829675768
3036.0,0.027250032020016794
3040.0,-0.011880126460267567
3044.0,-0.019439121539814527
3048.0,-0.007025651852496982
3052.0,0.022043018542976894
3056.0,0.04834892291946198
3060.0,0.02907880725301319
3064.0,-0.023534027989096318
3068.0,-0.03500047556051681
3072.0,-0.013402575135268538
3076.0,-0.023562493763516344
3080.0,-0.07503727342707811
3084.0,-0.08219604531240968
3088.0,-0.06586295069884697
3092.0,-0.09681844891851424
3096.0,-0.1772039390394486
3100.0,-0.030204876328894778
3104.0,0.11417950660652698
3108.0,0.18129124072948175
3112.0,0.3072805351038659
3116.0,0.42486384675370964
3120.0,0.4836699742349207
3124.0,0.657484145279418
3128.0,0.747088367844258
3132.0,0.8496875567054379
3136.0,0.9490494975866434
3140.0,1.0788714792061365
3144.0,0.9748237408842281
3148.0,0.7868784943573212
3152.0,0.7206065336776702
3156.0,0.6385143936285347
3160.0,0.5030142855340022
3164.0,0.43257768043607847
3168.0,0.39334465208325053
3172.0,0.21370034638144111
3176.0,0.17049295095379258
3180.0,0.055223893049961954
3184.0,-0.07695965615396803
3188.0,-0.1533417116040788
3192.0,-0.2165353769992125
3196.0,-0.24845590820154378
3200.0,-0.3065961712264933
3204.0,-0.2514690112567789
3208.0,-0.2525416141088985
3212.0,-0.1180033183753211
3216.0,-0.10336246608742183
3220.0,-0.0655272682623152
3224.0,-0.0768853176368216
3228.0,-0.05071412673047978
3232.0,-0.08758112807284531
3236.0,-0.0418320227321166
3240.0,-0.09524399959410795
3244.0,-0.0010309263010154779
3248.0,0.0031110593441855405
3252.0,-0.010216996580408158
3256.0,-0.011286658324988399
3260.0,-0.03785568543954544
3264.0,-0.02554586037807144
3268.0,-0.02651855534739203
3272.0,-0.008238449583118477
3276.0,-0.0668283910022415
3280.0,-0.007191181560346683
3284.0,0.005580599252877218
3288.0,0.013884878178751638
3292.0,0.01808342903003305
3296.0,-0.01961014894005072
3300.0,0.022105845187973882
3304.0,0.006488096756289346
3308.0,0.002251423941327567
3312.0,0.09356375297335208
3316.0,0.19561184383929786
3320.0,0.11458787611625644
3324.0,0.17743206338421413
3328.0,0.17009810410752252
3332.0,0.19923418523941355
3336.0,0.21360980206777339
3340.0,0.2440689269366776
3344.0,0.22639153016194455
3348.0,0.24670565061901606
3352.0,0.31008144008396255
3356.0,0.17070761790204508
3360.0,0.28885661369765475
3364.0,0.22844638551027507
3368.0,0.2893837261593013
3372.0,0.32872562756188795
3376.0,0.30437908715932166
3380.0,0.36127557362129314
3384.0,0.3178930189055223
3388.0,0.3333162679981054
3392.0,0.2896431986802899
3396.0,0.2881422668363686
3400.0,0.39876808072599534
3404.0,0.2942375933098316
3408.0,0.28530265793647325
3412.0,0.268938570070696
3416.0,0.2996730077513139
3420.0,0.1470546554736049
3424.0,0.17827564094480905
3428.0,0.14749178463708562
3432.0,0.1936667900434192
3436.0,0.17587892066542757
3440.0,0.112770034301953
3444.0,0.07290492682031872
3448.0,0.0432461245109719
3452.0,0.07981967028389372
3456.0,0.019368204143562377
3460.0,0.056204698294264915
3464.0,-0.0076822823552049665
3468.0,0.03113467840836007
3472.0,0.006544580424226222
3476.0,0.03450125986704241
3480.0,0.034027512142362444
3484.0,0.0036775423084522986
3488.0,-0.037262052633648735
3492.0,0.012708779477052139
3496.0,0.01274150864797899
3500.0,0.0053756767992886815
3504.0,0.01594218165570724
3508.0,0.010101657845902088
3512.0,0.0027988508746993974
3516.0,0.0002114875172359044
3520.0,-0.00036393268925190406
3524.0,0.04875524959779096
3528.0,0.031409963169970585
3532.0,-0.012986709616806891
3536.0,0.009528213660185605
3540.0,-0.03443293065750466
3544.0,0.0005534327876640921
3548.0,0.019550131811608674
3552.0,0.030907901869083765
3556.0,-0.012512537448956047
3560.0,0.0024211723894873314
3564.0,-0.0020167659283086277
3568.0,-0.01234505165886554
3572.0,-0.03986304592345768
3576.0,0.030282018982308374
3580.0,0.02736091940780337
3584.0,-0.021631289621651666
3588.0,0.028029902980382063
3592.0,0.02762193904798322
3596.0,-0.013775397071491334
3600.0,0.01187640090350678
3604.0,0.03740305328876161
3608.0,0.04012621340324834
3612.0,-0.009668264866431048
3616.0,-0.018099616810276983
3620.0,0.020220184992783035
3624.0,0.0663733108355164
3628.0,0.038766144524122484
3632.0,0.006685692156641581
3636.0,-0.024200935963275497
3640.0,-0.0012302551625351852
3644.0,-0.012766069337533775
3648.0,-0.0008531867053337425
3652.0,-0.018720412102111554
3656.0,0.030269976670860996
3660.0,-0.03973122215179448
3664.0,-0.011274724568425465
3668.0,-0.01454612208245857
3672.0,-0.011825371981639157
3676.0,-0.027609832794978383
3680.0,0.0567344739220393
3684.0,0.00707739970588696
3688.0,-0.033891976926570117
3692.0,-0.018461650101145016
3696.0,-0.04589995859728445
3700.0,-0.010331111193103825
3704.0,0.032126721742082455
3708.0,0.01173791102968022
3712.0,-0.023693925172421318
3716.0,0.011675101852636795
3720.0,0.053354823337833965
3724.0,-0.004339597632410341
3728.0,0.0016681889077212809
3732.0,0.02446455251920374
3736.0,-0.005206622153326828
3740.0,0.0026228187875811403
3744.0,-0.027188955224670547
3748.0,0.08021932547137496
3752.0,0.12391724571684704
3756.0,0.12582830352415514
3760.0,0.07719195284557669
3764.0,0.1795071876826854
3768.0,0.1620604296971673
3772.0,0.22158127701826813
3776.0,0.20086577730502309
3780.0,0.262457044896147
3784.0,0.2129853581713437
3788.0,0.22262762879612635
3792.0,0.261052943279623
3796.0,0.28420764709685264
3800.0,0.23687140722750488
3804.0,0.21758631231735912
3808.0,0.21075059941034002
3812.0,0.1913110278008794
3816.0,0.15356819332621358
3820.0,0.2219216772401882
3824.0,0.08521085225193277
3828.0,0.14233572408285855
3832.0,0.04865024944702154
3836.0,0.046229582737430684
3840.0,-0.0021725119298362044
3844.0,-0.038269646488682134
3848.0,0.020475620627857388
3852.0,-0.008401741026017326
3856.0,0.0008767346287500771
3860.0,0.05251441037219843
3864.0,-0.01584861679673691
3868.0,0.012893489147486852
3872.0,-0.02170933933908557
3876.0,-0.052151688493247944
3880.0,-0.0014429210837821043
3884.0,-0.0583015187099958
3888.0,-0.13393109193291386
3892.0,-0.10572311415558244
3896.0,-0.17500335600728292
3900.0,0.006313971864671758
3904.0,0.08878802936493724
3908.0,0.18241047879265523
3912.0,0.3350151432263931
3916.0,0.36716985922074746
3920.0,0.45266544458626634
3924.0,0.5936723778672356
3928.0,0.7014960006915536
3932.0,0.7638451835600082
3936.0,0.8830622333064816
3940.0,0.9910368724972258
3944.0,0.8809031220180791
3948.0,0.812037059324377
3952.0,0.6189022773733958
3956.0,0.6099145609128587
3960.0,0.5093809578250751
3964.0,0.3884325111470337
3968.0,0.27193630757890797
3972.0,0.19608744210320958
3976.0,0.07485265791864379
3980.0,-0.02198575126573648
3984.0,-0.021068775239957295
3988.0,-0.08917002547650246
3992.0,-0.2522264774470154
3996.0,-0.2470662733613011
4000.0,-0.3072631904179912
4004.0,-0.26331146069490957
4008.0,-0.21886869919247456
4012.0,-0.1018646540647019
4016.0,-0.03522695806253106
4020.0,-0.0936750897120292
4024.0,-0.043985816722377204
4028.0,-0.06958596280420445
4032.0,-0.05339115646387059
4036.0,-0.04555150300001641
4040.0,-0.08189694208309606
4044.0,-0.055251624478673086
4048.0,0.038758129068846035
4052.0,-0.007038637043041172
4056.0,-0.007979430425996917
4060.0,0.009867336415576505
4064.0,-0.04008111078084698
4068.0,-0.023851530996485685
4072.0,0.006119305807215335
4076.0,0.009325664224472554
4080.0,-0.027946035949355786
4084.0,-0.03914606389555927
4088.0,0.0016730042828094942
4092.0,0.023084656823218308
4096.0,0.02198095935368722
4100.0,0.009319484781603583
4104.0,0.07029387558835026
4108.0,0.047435108209535566
4112.0,0.08385641935051728
4116.0,0.08812104862072513
4120.0,0.09300371774471748
4124.0,0.13291095618712692
4128.0,0.0992858929531396
4132.0,0.1330857228516496
4136.0,0.25997391617739224
4140.0,0.2173057822129795
4144.0,0.2283400087459024
4148.0,0.24672778652006014
4152.0,0.2701255543329876
4156.0,0.26759942113162427
4160.0,0.2539929280538184
4164.0,0.22273048506068435
4168.0,0.28295480025549874
4172.0,0.25599915282210184
4176.0,0.3181823359300435
4180.0,0.3073918852798295
4184.0,0.22214652074949368
4188.0,0.24683728053022375
4192.0,0.32151552511075815
4196.0,0.30686145912503404
4200.0,0.23641222156832378
4204.0,0.30770739512394335
4208.0,0.2426826321096821
4212.0,0.23852793776587894
4216.0,0.20871017836775266
4220.0,0.1997646063308088
4224.0,0.15658152510741052
4228.0,0.2365418477721978
4232.0,0.177253657512296
4236.0,0.1199710738199779
4240.0,0.061096548968928854
4244.0,0.08962899367940334
4248.0,0.12616078603537156
4252.0,-0.004455815387785292
4256.0,0.03966289373616978
4260.0,0.040289953713789864
4264.0,0.011722175615296634
4268.0,0.009721846204954258
4272.0,-0.026357355735024016
4276.0,-0.007398067675522765
4280.0,-0.0064521833169711735
4284.0,-0.028727847585024564
4288.0,0.03046210637266613
4292.0,0.00885543322072979
4296.0,0.026525827782337995
4300.0,-0.006014852494160886
4304.0,0.014970756470857677
4308.0,0.01345529229016486
4312.0,0.05098829932975963
4316.0,-0.01121098286235165
4320.0,0.02909663891404312
4324.0,0.03163239931159531
4328.0,-0.014171433505012552
4332.0,0.002638637387639983
4336.0,0.02290341531481737
4340.0,0.027003183560055526
4344.0,0.024156793024627997
4348.0,0.032725447662501586
4352.0,-0.03324396457253387
4356.0,0.02078615567740635
4360.0,-0.048464381806312455
4364.0,-0.01800564660943446
4368.0,-0.0008163198128206718
4372.0,-0.006591313286997353
4376.0,-0.020326377296672492
4380.0,-0.0052222788903729615
4384.0,0.024764133095890872
4388.0,0.005191066345364443
4392.0,0.005156093180103286
4396.0,0.04451579288607209
4400.0,-0.02680523265081654
4404.0,0.0032060294725575968
4408.0,-0.03948648733876903
4412.0,0.02979021509765031
4416.0,-0.02843124978475151
4420.0,0.016623038082975557
4424.0,0.002886156866207373
4428.0,-0.0015993344703438242
4432.0,-0.006745237556355865
4436.0,-0.026855066510115183
4440.0,-0.004767675861045386
4444.0,-0.0015613014138438092
4448.0,-0.029417241381564117
4452.0,0.00860472735568284
4456.0,0.028457346883119034
4460.0,-0.030727847020816258
4464.0,0.03872512512898643
4468.0,-0.005854203558042314
4472.0,0.021832183830755608
4476.0,-0.01935858250992132
4480.0,0.002673809122801686
4484.0,0.08074628674427141
4488.0,0.02857450081992954
4492.0,-0.030202786248480877
4496.0,-0.0074536142122255036
4500.0,0.016545123514978385
4504.0,-0.009084396802727013
4508.0,0.01100243396571789
4512.0,-0.0192490493814159
4516.0,-0.01475866671606455
4520.0,0.04487304344487506
4524.0,0.052261554446643974
4528.0,-0.044100726788048134
4532.0,0.0016648575105090114
4536.0,0.028032868572602607
4540.0,-0.008116056820194367
4544.0,0.016594893987826292
4548.0,0.038794642238062435
4552.0,0.07496388722389877
4556.0,0.18032276308901446
4560.0,0.08756099678880228
4564.0,0.14152462125104953
4568.0,0.19573394898673618
4572.0,0.19788467446215804
4576.0,0.26918444183478313
4580.0,0.21782423672689774
4584.0,0.25366511907786393
4588.0,0.2652312581445084
4592.0,0.20579582300854687
4596.0,0.20954199915856606
4600.0,0.25153224266922464
4604.0,0.19459089340121574
4608.0,0.22243580089331438
4612.0,0.18752452987136595
4616.0,0.16554674203878175
4620.0,0.15347727730564878
4624.0,0.1134630818581109
4628.0,0.039094580903657215
4632.0,0.05290489268090235
4636.0,0.0124523986034142
4640.0,0.005805516622919997
4644.0,-0.024482515790600904
4648.0,0.03859639855989467
4652.0,0.08365031804025166
4656.0,0.024139220869283218
4660.0,0.009884572298683525
4664.0,0.022284133209826716
4668.0,-0.00803436568039424
4672.0,0.0071023690720655825
4676.0,0.006954815156662542
4680.0,0.02892357098752228
4684.0,-0.06298087119613476
4688.0,-0.07829540871154567
4692.0,-0.07215631137421578
4696.0,-0.1716556296664384
4700.0,0.03923781544250063
4704.0,0.09867570897974981
4708.0,0.18878073481971336
4712.0,0.3171034280385207
4716.0,0.3604891103689601
4720.0,0.5037189560870015
4724.0,0.6472762912940431
4728.0,0.727630286478682
4732.0,0.7920075780155849
4736.0,0.8674892488294248
4740.0,1.0646743829272358
4744.0,0.845078098870797
4748.0,0.7968817994395379
4752.0,0.699329562623934
4756.0,0.6188552108878711
4760.0,0.49997464695379745
4764.0,0.4120355282249892
4768.0,0.2658394598071148
4772.0,0.22231178817250236
4776.0,0.11600710599687453
4780.0,0.013214376408573281
4784.0,-0.05811587125506707
4788.0,-0.15126367947645086
4792.0,-0.20294483690903967
4796.0,-0.2910451239871463
4800.0,-0.2984278913771336
4804.0,-0.27565560711509274
4808.0,-0.22096357280447854
4812.0,-0.11569963574740938
4816.0,-0.05720997481796213
4820.0,-0.040244750711324405
4824.0,-0.08451525819499775
4828.0,-0.02253414596783553
4832.0,-0.034952158820505744
4836.0,-0.0039055837393310103
4840.0,-0.06123925176553749
4844.0,-0.0068805714858529606
4848.0,-0.10536455413533288
4852.0,0.0010309045693531332
4856.0,0.019192433732368133
4860.0,0.016611514062383353
4864.0,-0.07133299928012185
4868.0,-0.04731926975570393
4872.0,0.017355611320405192
4876.0,0.03666713542124764
4880.0,-0.012352785030684961
4884.0,-0.017666856766850664
4888.0,0.013263875487554203
4892.0,-0.015500770592874717
4896.0,0.021010517337557544
4900.0,0.020559544288126338
4904.0,0.09751789346879508
4908.0,0.021594890048512696
4912.0,0.0913929203873809
4916.0,0.0958190091918409
4920.0,0.1565686744681561
4924.0,0.16427185652809617
4928.0,0.1164237699661424
4932.0,0.16847883244223638
4936.0,0.16527681275978037
4940.0,0.21179813850571105
4944.0,0.21507924155576388
4948.0,0.233573899739523
4952.0,0.27157121992663774
4956.0,0.2869278818463368
4960.0,0.31710767793797223
4964.0,0.24223423572822417
4968.0,0.3354615095968032
4972.0,0.28795838219492575
4976.0,0.24477184240154257
4980.0,0.2766368121085796
4984.0,0.33357407542922535
4988.0,0.30018608634230254
4992.0,0.2660346521986089
4996.0,0.30864497403085306
5000.0,0.3134248557760735
5004.0,0.2530544806388295
5008.0,0.22327408423674613
5012.0,0.2675287283880098
5016.0,0.2024916388774699
5020.0,0.24597758940350772
5024.0,0.2318928671845094
5028.0,0.21967673269637636
5032.0,0.16916531957960407
5036.0,0.12845724985928844
5040.0,0.06667505161468178
5044.0,0.10112781334207338
5048.0,0.04860223748166829
5052.0,0.05139285758013258
5056.0,-0.014623168374980844
5060.0,0.047830845628232185
5064.0,-0.06758753096221919
5068.0,0.012337318866119988
5072.0,0.01123645466405729
5076.0,-0.007659087986456886
5080.0,0.022083105397265858
5084.0,0.05984125385732524
5088.0,-0.008109878993333751
5092.0,-0.02190560397297017
5096.0,0.02704869733659739
5100.0,-0.0389939886826355
5104.0,-0.0025209822448753476
5108.0,-0.0229899123871288
5112.0,0.006237298140195722
5116.0,0.015714117307015562
5120.0,0.0008269900928416185
5124.0,-0.004711461256507706
5128.0,0.030961637097212672
5132.0,0.0235993395972845
5136.0,0.0005483568902050625
5140.0,0.004725396686583382
5144.0,-0.007889890790350206
5148.0,0.05036168183557588
5152.0,-0.0016822577140010915
5156.0,0.027099139682397973
5160.0,0.04208649804404626
5164.0,0.007002642557014287
5168.0,-0.01095030433891311
5172.0,0.012036744695279177
5176.0,-0.0032916689697956706
5180.0,-0.06483443716879789
5184.0,0.02428147794631558
5188.0,-0.004137309300651483
5192.0,-0.001993197440125343
5196.0,-0.017953230649488765
5200.0,-0.04165461484327293
5204.0,0.007989042833725247
5208.0,0.008714079016800302
5212.0,0.04945767107292603
5216.0,0.035284708385183904
5220.0,0.02508699403922954
5224.0,0.021679198248091214
5228.0,-0.006500744487266231
5232.0,0.008150589746613679
5236.0,-0.015848371217926385
5240.0,0.013366812273161721
5244.0,0.006104291886798615
5248.0,0.006543685783634194
5252.0,0.008061120350943838
5256.0,-0.0021163826069604823
5260.0,-0.0180971876976027
5264.0,0.004179392923325337
5268.0,-0.004452337782439188
5272.0,-0.010936864982269376
5276.0,0.028232113982058497
5280.0,-0.028575227322434414
5284.0,-0.030239823413806696
5288.0,-0.05169851806652676
5292.0,-0.044420993059230376
5296.0,-0.011168600384319665
5300.0,0.055290344810884136
5304.0,0.010704233908641884
5308.0,0.02315982602081139
5312.0,0.013636938562147524
5316.0,-0.00872588490269488
5320.0,-0.029884632302318873
5324.0,0.010346215235054154
5328.0,-0.03435835264195203
5332.0,-0.021679797396845724
5336.0,-0.022399673847283304
5340.0,-0.050885658728004116
5344.0,0.06690357702326877
5348.0,0.05406570726673563
5352.0,0.11264715122640459
5356.0,0.11095928901217754
5360.0,0.15106689507256227
5364.0,0.2355838297405502
5368.0,0.19055494069048556
5372.0,0.21861950258777413
5376.0,0.21855492878175087
5380.0,0.21604232139211807
5384.0,0.2200745827341386
5388.0,0.2145168910967124
5392.0,0.22522236376802265
5396.0,0.25401913850909635
5400.0,0.2129698291095611
5404.0,0.2170507499051318
5408.0,0.16052050607712598
5412.0,0.21525251600294062
5416.0,0.1877556018787764
5420.0,0.14776712916132725
5424.0,0.1012635814964642
5428.0,0.1598051331391826
5432.0,0.02612452738698351
5436.0,0.0010472976261213414
5440.0,-0.035649855788337584
5444.0,0.023374748941202787
5448.0,-0.012051986285988804
5452.0,-0.007082294288879804
5456.0,-0.004128877188656586
5460.0,-0.06321172422397858
5464.0,0.029713078668332213
5468.0,0.016326493548795697
5472.0,0.01603220948807465
5476.0,-0.012010758328222532
5480.0,0.040383866466383575
5484.0,-0.021134585949416654
5488.0,-0.06564530579608831
5492.0,-0.1093280884730034
5496.0,-0.14510064182993723
5500.0,-0.01960320205088185
5504.0,0.11442916199028766
5508.0,0.16867887095315842
5512.0,0.3264969164916733
5516.0,0.41567568644901964
5520.0,0.5003417301644351
5524.0,0.6323649082554997
5528.0,0.6618967138923513
5532.0,0.8145440750848626
5536.0,0.9122350802482656
5540.0,0.9526947966251499
5544.0,0.8437810306681428
5548.0,0.765434711958117
5552.0,0.7370317410890384
5556.0,0.580147210926964
5560.0,0.4910373994402768
5564.0,0.38829453091660165
5568.0,0.25739111008314075
5572.0,0.23245398505468454
5576.0,0.07355315772663117
5580.0,-0.019909837479601407
5584.0,-0.03237818715648169
5588.0,-0.07314249455134839
5592.0,-0.13793301272899344
5596.0,-0.23297132558090525
5600.0,-0.30802639005469945
5604.0,-0.24662928815273066
5608.0,-0.2228383465456847
5612.0,-0.08133156494989731
5616.0,-0.08774366572544597
5620.0,-0.10061009097589149
5624.0,-0.04662574900560297
5628.0,-0.06933241298163777
5632.0,-0.05109609292621875
5636.0,-0.044325871012331014
5640.0,-0.05519788142306496
5644.0,-0.04026221992670695
5648.0,-0.07571230429946055
5652.0,0.0041461526956799374
5656.0,-0.03371370687527281
5660.0,-0.05300932755545864
5664.0,-0.04345343508458342
5668.0,-0.06612824996221238
5672.0,0.010046332912546425
5676.0,-0.02069831361203288
5680.0,-0.027126926506558707
5684.0,-0.054302834763647403
5688.0,0.016275840388924157
5692.0,-0.033974303521906224
5696.0,0.029523898880547645
5700.0,-0.011578698053176477
5704.0,-0.03058424219144578
5708.0,0.04180402461392293
5712.0,0.020494856406061975
5716.0,0.1122188740765484
5720.0,0.17954584759925607
5724.0,0.15091387392715241
5728.0,0.10801565388049168
5732.0,0.16856937729457416
5736.0,0.22990228466198542
5740.0,0.23901018600619486
5744.0,0.23469970640585427
5748.0,0.19884983222968683
5752.0,0.28486527351663904
5756.0,0.28719276176497527
5760.0,0.26059759935410937
5764.0,0.28132525645597267
5768.0,0.29706525613282797
5772.0,0.36715475329002667
5776.0,0.2798722196886855
5780.0,0.36173726786587124
5784.0,0.33031999984436083
5788.0,0.25542340240232253
5792.0,0.30983999193850315
5796.0,0.30310172797213003
5800.0,0.27068913998383026
5804.0,0.2639430205077079
5808.0,0.2695956720500249
5812.0,0.19552404540205734
5816.0,0.2587748634086541
5820.0,0.22790937946794326
5824.0,0.15571787279726457
5828.0,0.1806040035873324
5832.0,0.1772699679706053
5836.0,0.12028406925273696
5840.0,0.10750290809898605
5844.0,0.09804773450919342
5848.0,0.04629096824491572
5852.0,0.04912315805294197
5856.0,0.03626489105298014
5860.0,0.007571122786596147
5864.0,0.003832685034830694
5868.0,-0.009609646291028005
5872.0,0.04032943787016957
5876.0,0.03108422594870577
5880.0,0.0024547043690870966
5884.0,-0.05622987442382704
5888.0,0.012846360803757083
5892.0,0.049348109987320046
5896.0,0.017794365267167468
5900.0,0.012597405221368098
5904.0,-0.0010267666471111148
5908.0,0.014609739704708913
5912.0,-0.011463139421050926
5916.0,-0.03230418114582265
5920.0,0.0031298824743065047
5924.0,-0.04434210697204146
5928.0,-0.004914651832869598
5932.0,0.024118325164474586
5936.0,-0.05445019078367991
5940.0,-0.00011511415542054917
5944.0,-0.06847513014996595
5948.0,-0.00907906090823449
5952.0,0.028976356927677936
5956.0,-0.05414754996593025
5960.0,-0.016958585743566006
5964.0,0.01826244513551174
5968.0,-0.03113756734730728
5972.0,0.01437007682174051
5976.0,0.07607775207113915
5980.0,-0.03210262733888511
5984.0,-0.014527809305310191
5988.0,-0.05545151613127093
5992.0,-0.0024432783908888535
5996.0,-0.0566209973988048
6000.0,-0.024615690588387577
6004.0,0.04176909933116492
6008.0,-0.010007364101736289
6012.0,0.012244957130774494
6016.0,-0.011342955219198855
6020.0,0.0002964765096131062
6024.0,-0.01616494632871443
6028.0,0.017658941493342118
6032.0,0.016566474752691372
6036.0,-0.030582849985828962
6040.0,-0.052520287626076204
6044.0,-0.06194877235477186
6048.0,0.02887119185181392
6052.0,0.010611838107775762
6056.0,-0.012706607268025054
6060.0,-0.06729024635182788
6064.0,0.026297586628312122
6068.0,-0.016181406458589186
6072.0,0.0012710069882336625
6076.0,0.03707153598643581
6080.0,0.001408673225576587
6084.0,-0.033673435500851855
6088.0,0.0076693501967877225
6092.0,0.028345942677740467
6096.0,0.04009158484595202
6100.0,0.016908581989030707
6104.0,0.0005122432916118573
6108.0,-0.009639894943927562
6112.0,-0.0012337650842125462
6116.0,-0.0018335720070500252
6120.0,0.03148323765727204
6124.0,-0.020250150764974818
6128.0,0.054781962301774956
6132.0,0.00782230463838258
6136.0,0.07509271557093487
6140.0,-0.018772623341143206
6144.0,-0.01721056437684859
6148.0,0.0946133722766287
6152.0,0.07607387797017062
6156.0,0.10612624932199348
6160.0,0.1688395886032297
6164.0,0.15217090274139267
6168.0,0.20161171881444429
6172.0,0.21860822288779425
6176.0,0.23048481965657716
6180.0,0.2349222832450263
6184.0,0.2691004387580642
6188.0,0.2438040093720959
6192.0,0.19624114804650028
6196.0,0.21122034578992638
6200.0,0.28870836782081816
6204.0,0.2180780437747561
6208.0,0.1708740299189123
6212.0,0.1920885682343337
6216.0,0.209162819773609
6220.0,0.15123112892163867
6224.0,0.13750001494236383
6228.0,0.11230602833552493
6232.0,0.055103284724224426
6236.0,0.03442829960578023
6240.0,0.004559184827806243
6244.0,-0.012183059225507782
6248.0,0.011904460810443105
6252.0,0.02924059949795959
6256.0,-0.019456752744709784
6260.0,0.021499480176172998
6264.0,0.03831032366985172
6268.0,-0.005444085576402234
6272.0,0.0037996266207863103
6276.0,-0.028809974328287826
6280.0,-0.03662297889918447
6284.0,-0.07243672868010077
6288.0,-0.0918900437767884
6292.0,-0.09298480226948894
6296.0,-0.10527361757048947
6300.0,0.029588372080267374
6304.0,0.09504125758070378
6308.0,0.18181808269902633
6312.0,0.2791073270698058
6316.0,0.37865170571198603
6320.0,0.5144263251082088
6324.0,0.6097711781467282
6328.0,0.6527429114130721
6332.0,0.8062755251557202
6336.0,0.8626089517361011
6340.0,1.0340885162966955
6344.0,0.920716946112178
6348.0,0.7673714104553814
6352.0,0.6704535270731541
6356.0,0.5770236195294368
6360.0,0.4508796216927471
6364.0,0.34804616420732704
6368.0,0.2799571200977628
6372.0,0.1737024130671445
6376.0,0.058432267383493906
6380.0,-0.0437813813038524
6384.0,-0.11064382528837774
6388.0,-0.12113100248019053
6392.0,-0.19494226186164257
6396.0,-0.26974879524366946
6400.0,-0.29251098160399486
6404.0,-0.20229146585303037
6408.0,-0.1872997814145095
6412.0,-0.10929012535121257
6416.0,-0.028591004546020076
6420.0,-0.046369337235444855
6424.0,-0.08308962455880542
6428.0,-0.0534609500495651
6432.0,-0.05849603832640887
6436.0,-0.07821348172465756
6440.0,-0.03277672790523762
6444.0,-0.005226438235944979
6448.0,-0.042436830327861524
6452.0,-0.05051208509295724
6456.0,0.005035280828681727
6460.0,-0.019001308767473177
6464.0,-0.04892683897951374
6468.0,-0.05977604624860536
6472.0,-0.02835924706295629
6476.0,-0.00818061377798354
6480.0,-0.03567691240550571
6484.0,-0.001343475774910001
6488.0,0.004368373091103616
6492.0,-0.05717406274640574
6496.0,-0.019045966646250932
6500.0,0.037341267446460276
6504.0,0.04834276883010953
6508.0,-6.677448893115112e-05
6512.0,0.0902494337329339
6516.0,0.11945314130805912
6520.0,0.07625845127072098
6524.0,0.12253127656564004
6528.0,0.19879638990966608
6532.0,0.15291947055692787
6536.0,0.20231415965734326
6540.0,0.23290373991915964
6544.0,0.20662788283423317
6548.0,0.23083509227319712
6552.0,0.2606918989221584
6556.0,0.31226879034608296
6560.0,0.25450496115983057
6564.0,0.3084973996932259
6568.0,0.2820612268475174
6572.0,0.2568476706278775
6576.0,0.3028082333660604
6580.0,0.30902978966931743
6584.0,0.24232022073248688
6588.0,0.3400625181163775
6592.0,0.3136293130665709
6596.0,0.32841453152040817
6600.0,0.30377556575965015
6604.0,0.2917852406922473
6608.0,0.28361183013520286
6612.0,0.2548500593806182
6616.0,0.19657434462903645
6620.0,0.2831744977392024
6624.0,0.18508412854477582
6628.0,0.21088310626640783
6632.0,0.20731802701432123
6636.0,0.18308033025470363
6640.0,0.13477588771873947
6644.0,0.12830077014717625
6648.0,0.1033649667420981
6652.0,0.09027678720707656
6656.0,0.024206292327384697
6660.0,-0.0009313278838104065
6664.0,-0.009390072786113476
6668.0,0.04837697842353511
6672.0,-0.006916247899968426
6676.0,-0.023468245040957313
6680.0,-0.00927594715607185
6684.0,-0.008531538442227928
6688.0,-0.058850509290122345
6692.0,0.02754330839040499
6696.0,0.02731994771621952
6700.0,-0.017046126888440007
6704.0,-0.01676027488185493
6708.0,0.004445960400768684
6712.0,0.002392263508545695
6716.0,-0.034152680513774354
6720.0,0.013306584209179129
6724.0,-0.05597200278087186
6728.0,-0.0008248091986753404
6732.0,0.0797448750694013
6736.0,0.010070134153597478
6740.0,-0.01954765167806538
6744.0,0.003026328764482679
6748.0,-0.01724670150624882
6752.0,0.015750191065569134
6756.0,-0.03324919892873403
6760.0,-0.04532746350185559
6764.0,0.03315438513823425
6768.0,0.019705996871754696
6772.0,-0.062183912397862265
6776.0,-0.00878624971686289
6780.0,-0.00826032988580014
6784.0,-0.04116557562678959
6788.0,-0.000821919002763551
6792.0,-0.03334415225751166
6796.0,-0.026486779522524356
6800.0,0.02833181087164626
6804.0,0.07226415127431186
6808.0,-0.018643412849655476
6812.0,0.016873966183013206
6816.0,0.03197823799501922
6820.0,0.038702776531339765
6824.0,-0.027440581247828822
6828.0,-0.006626677004826844
6832.0,-0.03576824615980235
6836.0,-0.03606007126465319
6840.0,-0.029818432517045176
6844.0,-0.027115561929615627
6848.0,-0.02163491222102167
6852.0,0.0001977073896098259
6856.0,-0.027704610965421102
6860.0,0.04365978346983274
6864.0,0.027271536644859783
6868.0,0.05938158012771165
6872.0,0.01331321157476978
6876.0,0.0029333273045473347
6880.0,-0.006735243211430785
6884.0,-0.014891891643770416
6888.0,-0.016161267525412606
6892.0,0.03419126595456581
6896.0,0.0773231374817137
6900.0,0.03909703430648232
6904.0,-0.020056141802690823
6908.0,0.0022234028688145322
6912.0,-0.02409856285203798
6916.0,0.008682029036643984
6920.0,-0.012280055414314123
6924.0,-0.04307996581955048
6928.0,0.0489816480999933
6932.0,-0.015824374469090897
6936.0,0.011942748197802684
6940.0,0.011105574837206186
6944.0,-0.020315738273357635
6948.0,0.05786445875232583
6952.0,0.13041052558698996
6956.0,0.15717294450905378
6960.0,0.2211027124061418
6964.0,0.18605065047340813
6968.0,0.17206850297961626
6972.0,0.23524899888876763
6976.0,0.21542963571109877
6980.0,0.2562883626228776
6984.0,0.22479092081785998
6988.0,0.29457571535802923
6992.0,0.24076511095825906
6996.0,0.27155268962949825
7000.0,0.26871740711717007
7004.0,0.3004775189487742
7008.0,0.17530499706490574
7012.0,0.1844721968758517
7016.0,0.169612610737433
7020.0,0.12659425070151126
7024.0,0.21175245290893155
7028.0,0.10569259586176409
7032.0,0.0745640657987366
7036.0,0.024468471839816604
7040.0,0.028825422254208914
7044.0,0.03035849166856085
7048.0,-0.0019448520016160816
7052.0,-0.008721507506471202
7056.0,0.010974688002927644
7060.0,0.010517386866062633
7064.0,0.005148271219568365
7068.0,-0.03292344688244431
7072.0,-0.05048370465432245
7076.0,0.012943524258402537
7080.0,0.01973457155645459
7084.0,-0.003570850076738963
7088.0,-0.09461694859862683
7092.0,-0.11191604063277871
7096.0,-0.14895472608306798
7100.0,0.033158152807015666
7104.0,0.1068078042578866
7108.0,0.26784480081114026
7112.0,0.32520706089384477
7116.0,0.3817144158778532
7120.0,0.48946308940283484
7124.0,0.639969795452898
7128.0,0.6927670244678987
7132.0,0.8436112524823144
7136.0,0.9804638755621085
7140.0,1.0485013159243304
7144.0,0.9619817852577628
7148.0,0.815469096475312
7152.0,0.7098585028559479
7156.0,0.5400451246554138
7160.0,0.5169985132083558
7164.0,0.46383467186597893
7168.0,0.26581308424944583
7172.0,0.1964014675266124
7176.0,0.12694003446564972
7180.0,-0.016708980528882242
7184.0,-0.06695767994407076
7188.0,-0.11434458429364601
7192.0,-0.23174852388261044
7196.0,-0.2294096614128675
7200.0,-0.3275652636309441
7204.0,-0.2384673425219535
7208.0,-0.19245240169976383
7212.0,-0.11641110249742406
7216.0,-0.08071774698021758
7220.0,-0.03261918181653761
7224.0,-0.07103145451881213
7228.0,-0.034331197106900954
7232.0,-0.006440537909320497
7236.0,-0.05294385374608423
7240.0,-0.06536444409851747
7244.0,-0.019000242503880466
7248.0,-0.07863575618008846
7252.0,-0.03536419749372349
7256.0,-0.06954992392341172
7260.0,0.012429212197255905
7264.0,-0.026631700308955567
7268.0,-0.011784627300746116
7272.0,0.018143524753450036
7276.0,-0.05124442415130487
7280.0,-0.05694585365080446
7284.0,-0.0018715386687340584
7288.0,-0.017902194920324715
7292.0,-0.000915362284314972
7296.0,0.03145261036785192
7300.0,-0.034464921415296425
7304.0,0.07024556934919211
7308.0,0.04340334734760487
7312.0,0.06251992378082945
7316.0,0.11725604390776721
7320.0,0.14886695379973627
7324.0,0.1698193495937535
7328.0,0.1483355781562112
7332.0,0.1822926701260131
7336.0,0.23402772376538242
7340.0,0.24558156877568435
7344.0,0.22182540506320128
7348.0,0.293636186347497
7352.0,0.2907921267346495
7356.0,0.32048667424726823
7360.0,0.34232606562429574
7364.0,0.3319456090838645
7368.0,0.34657064474468663
7372.0,0.2665313534772517
7376.0,0.25013286397489987
7380.0,0.28629075174763907
7384.0,0.28426272987856815
7388.0,0.26497259971202813
7392.0,0.298279212603689
7396.0,0.2722068069253895
7400.0,0.24914598239838937
7404.0,0.3173141871045237
7408.0,0.24254292094757599
7412.0,0.29405937433198454
7416.0,0.20114472648769213
7420.0,0.22788082210168487
7424.0,0.2154203996894668
7428.0,0.17380788518955365
7432.0,0.21150725221801295
7436.0,0.06602791391045211
7440.0,0.09643002415416108
7444.0,0.10969719872841995
7448.0,0.0687500238133724
7452.0,0.060783560201162656
7456.0,-0.010657851164604392
7460.0,-0.024110816881863843
7464.0,-0.014180388844796894
7468.0,-0.01111690085771318
7472.0,0.022443497383618723
7476.0,0.011894414968687171
7480.0,0.019341959711360945
7484.0,-0.03413994104625139
7488.0,-0.07149391712948822
7492.0,-0.013041991450505771
7496.0,-0.04149873201729114
7500.0,-0.012998080604721319
7504.0,0.03933076777825683
7508.0,-0.03331865930522844
7512.0,0.006591603896960973
7516.0,0.035845891219056895
7520.0,-0.004891719239599355
7524.0,0.022739524195361484
7528.0,0.010461694687655707
7532.0,-0.0014436002436438182
7536.0,-0.010701253423089106
7540.0,0.004007900560378809
7544.0,-0.0016036177721436558
7548.0,0.03219064481588167
7552.0,0.011110661755135092
7556.0,0.012686780524189162
7560.0,0.041358879109716744
7564.0,0.014611717752357048
7568.0,-0.04637006197112658
7572.0,-0.041997505338499705
7576.0,-0.08096778613005509
7580.0,-0.00042443542826146267
7584.0,-0.01958501112248274
7588.0,0.051665421670793646
7592.0,0.021390003147666658
7596.0,0.004670617542875741
7600.0,0.004849372081710767
7604.0,-0.005805855015456209
7608.0,-0.03619616564237065
7612.0,0.038144371338702576
7616.0,-0.041387844339617
7620.0,-0.01375984716423687
7624.0,-0.0006099381557256074
7628.0,0.008730503379477091
7632.0,-0.018573720283839423
7636.0,-0.0266362686278716
7640.0,0.01892745467708526
7644.0,0.01988510696418342
7648.0,-0.014232447824280542
7652.0,0.05032223607579553
7656.0,0.034342653858156096
7660.0,0.011418691886747793
7664.0,0.03538299400808674
7668.0,0.0350023615424532
7672.0,0.042194272482141804
7676.0,-0.026408873392180694
7680.0,-0.05164060423838878
7684.0,0.027877507585622265
7688.0,-0.04594489045446587
7692.0,-0.0014405932591000357
7696.0,0.024960466295879207
7700.0,0.01904873857414853
7704.0,0.017150756866661704
7708.0,-0.006189603365351194
7712.0,0.0017676095385716851
7716.0,0.04860047651190854
7720.0,0.0357160312188821
7724.0,0.007208789859517248
7728.0,0.015881670764745805
7732.0,0.0109550197240335
7736.0,0.020962873530780298
7740.0,-0.013155727242999155
7744.0,0.03807827039907968
7748.0,0.07015499606573368
7752.0,0.09774905015927304
7756.0,0.10287394672975567
7760.0,0.09724146206179693
7764.0,0.12401512739929002
7768.0,0.16863432582568208
7772.0,0.24546230708457864
7776.0,0.22985701276294
7780.0,0.23905238804452852
7784.0,0.21617419034069602
7788.0,0.29170426340136146
7792.0,0.19731274970089127
7796.0,0.25932531374208784
7800.0,0.24384692217444132
7804.0,0.26329084420331134
7808.0,0.1987660449913193
7812.0,0.20746968087020046
7816.0,0.1345063588187364
7820.0,0.16959885631380464
7824.0,0.14463283580757613
7828.0,0.0682812918527805
7832.0,0.04893012743094482
7836.0,0.035609964847990255
7840.0,-0.01604978439324766
7844.0,0.025597492048967288
7848.0,-0.018280607504018612
7852.0,0.005696072899976636
7856.0,-0.032076909753390746
7860.0,0.004613697385554405
7864.0,-0.025380321818127327
7868.0,0.010553919908398629
7872.0,0.02488202402398331
7876.0,0.02433084250486996
7880.0,-0.013582878507062019
7884.0,-0.04314240632982125
7888.0,-0.06894798884559464
7892.0,-0.12476471271936802
7896.0,-0.16223738530904686
7900.0,0.015162471687116624
7904.0,0.08010565351723752
7908.0,0.16317174907388574
7912.0,0.30774950326004863
7916.0,0.437087017219525
7920.0,0.4945285049640763
7924.0,0.582655184237563
7928.0,0.6638640259321019
7932.0,0.8236401824615944
7936.0,0.8536069353693567
7940.0,0.9635191634927586
7944.0,0.8556245829202733
7948.0,0.860371859325614
7952.0,0.6719092919242126
7956.0,0.5914324503527476
7960.0,0.47175707848966125
7964.0,0.3941587039911624
7968.0,0.33108491245338645
7972.0,0.17716376458869373
7976.0,0.09755586951522546
7980.0,-0.05796444726103705
7984.0,-0.0873110687245078
7988.0,-0.06685543771091934
7992.0,-0.1832428729201353
7996.0,-0.22890243984462752
8000.0,-0.2539451434916398
8004.0,-0.278162015085133
8008.0,-0.16882347039614648
8012.0,-0.14927627962243592
8016.0,-0.08039598393984863
8020.0,-0.06426381204015086
8024.0,-0.08112742344354316
8028.0,0.016822663479497707
8032.0,-0.07033332927420274
8036.0,-0.05645995262795833
8040.0,-0.04582436369596992
8044.0,-0.04488639091519601
8048.0,-0.062033635574303095
8052.0,-0.040011773204478386
8056.0,-0.05042529573820649
8060.0,0.00631616411947367
8064.0,-0.025853274586654006
8068.0,-0.03980896141761461
8072.0,-0.025990349199030895
8076.0,-0.005693821973440776
8080.0,-0.027675509126736553
8084.0,-0.07695836384373428
8088.0,-0.01897896918862344
8092.0,-0.01160101189858996
8096.0,-0.052319642554516856
8100.0,-0.006537741738319487
8104.0,0.048306153093130286
8108.0,0.04168657674283548
8112.0,0.059920162552785164
8116.0,0.06954350785953095
8120.0,0.10098068248907216
8124.0,0.13076036678079497
8128.0,0.1090956470454914
8132.0,0.23253374036932367
8136.0,0.1593052245388285
8140.0,0.2627823571717764
8144.0,0.20556201721027761
8148.0,0.2591925538916065
8152.0,0.19870614593266073
8156.0,0.2712104065852643
8160.0,0.2539704404985486
8164.0,0.27276417196098623
8168.0,0.29752771985161786
8172.0,0.36127102771061803
8176.0,0.3196256122582562
8180.0,0.3080306166439287
8184.0,0.30328097184754294
8188.0,0.28620125196152346
8192.0,0.25627089083110827
8196.0,0.27661024480080737
8200.0,0.3135100633312725
8204.0,0.23615200323446012
8208.0,0.2316747816727395
8212.0,0.2005396154296814
8216.0,0.2507043817095611
8220.0,0.23332498243268246
8224.0,0.19399063973583122
8228.0,0.1635565600410184
8232.0,0.15540698447733822
8236.0,0.1424583421041736
8240.0,0.07445492294889135
8244.0,0.1018271851536585
8248.0,0.05185674107779312
8252.0,0.051625991539892585
8256.0,0.02613383547100278
8260.0,-0.03854521682110166
8264.0,0.035267623399951334
8268.0,0.011875754364466012
8272.0,-0.005865307499450351
8276.0,0.04891339544956211
8280.0,-0.006402147786161022
8284.0,0.031191232073412987
8288.0,0.024251654901902734
8292.0,0.008738061382563172
8296.0,-0.0030232034882733787
8300.0,0.03753978271126307
8304.0,0.034931049922388414
8308.0,0.05538286420961603
8312.0,-0.015529150165392892
8316.0,-0.011076391812481953
8320.0,-0.023850043736247092
8324.0,0.015515139632314247
8328.0,0.03625799808270438
8332.0,0.02257594931963514
8336.0,0.047703188600129294
8340.0,0.02329925631913798
8344.0,0.007390966380681856
8348.0,-0.002753295280746095
8352.0,-0.011604837911403147
8356.0,0.0313830647984511
8360.0,0.017890855124842123
8364.0,-0.026990012618899155
8368.0,-0.0010617630043239135
8372.0,0.01007726276852294
8376.0,-0.002686039010033845
8380.0,0.029619352790137637
8384.0,-0.06088095770582404
8388.0,0.033430752522975046
8392.0,-0.02483073900362356
8396.0,-0.03329046582867958
8400.0,0.005447421566800282
8404.0,-0.05701167867864107
8408.0,-0.013340514313096944
8412.0,-0.01281827480977142
8416.0,0.0180028181041533
8420.0,-0.025442090969079883
8424.0,0.004633389861272167
8428.0,0.031192352278322434
8432.0,-0.0007091686098778991
8436.0,0.004491481893168913
8440.0,-0.013572190855140803
8444.0,-0.05697676364976662
8448.0,-0.012144783604900268
8452.0,-0.07251539762005421
8456.0,0.04522694304260868
8460.0,-0.06642299820528502
8464.0,0.012596087046884053
8468.0,0.027122627517613282
8472.0,-0.02258029522122199
8476.0,-0.00043875175887846265
8480.0,-0.014815295464127269
8484.0,-0.022163889905769812
8488.0,0.0169487251075396
8492.0,-0.03853821685241431
8496.0,0.005472232057600334
8500.0,-0.0076783648080395
8504.0,-0.004585865461712561
8508.0,-0.0035859690150941374
8512.0,-0.006264365410732128
8516.0,0.017637939685370054
8520.0,0.0012980755437463245
8524.0,-0.008360490890505659
8528.0,-0.01491146850094488
8532.0,0.008317597602478884
8536.0,0.001425730400318818
8540.0,0.012107889006278896
8544.0,0.059866674891836294
8548.0,0.08667013670002183
8552.0,0.10097756429882028
8556.0,0.16925222431080206
8560.0,0.14177371951606707
8564.0,0.1418374598408649
8568.0,0.216704275082611
8572.0,0.2187690387014157
8576.0,0.21983337290419605
8580.0,0.24702161597102792
8584.0,0.26245804618901314
8588.0,0.27473773472941726
8592.0,0.26663508826799115
8596.0,0.23860689511671682
8600.0,0.25623871092951245
8604.0,0.24345365505355301
8608.0,0.2859477757375489
8612.0,0.18451751462826707
8616.0,0.16168632674208486
8620.0,0.164321584350949
8624.0,0.10172104274768748
8628.0,0.19122264680629986
8632.0,0.06649825527056887
8636.0,-0.003727021023561712
8640.0,-0.020723028581438707
8644.0,-0.037696083168725594
8648.0,0.0337560529489682
8652.0,-0.013638252603371145
8656.0,-0.06212621052591051
8660.0,0.013410521604081774
8664.0,0.021312033729074264
8668.0,-0.036452598156310294
8672.0,0.026488777191638238
8676.0,-0.001749374275624835
8680.0,0.002551988920001764
8684.0,0.0032383753091091497
8688.0,-0.07142280279024807
8692.0,-0.14078147249934442
8696.0,-0.19510906574115777
8700.0,0.022695668377573055
8704.0,0.14072102370347866
8708.0,0.2062905545861436
8712.0,0.3422143603603708
8716.0,0.4098547210583155
8720.0,0.526344934901277
8724.0,0.5607066740663162
8728.0,0.7355110461537024
8732.0,0.806917307437835
8736.0,0.9658825178327679
8740.0,1.011415270016964
8744.0,0.9351272899436676
8748.0,0.9133960231780066
8752.0,0.7338469697991065
8756.0,0.61730586166992
8760.0,0.5738235224407405
8764.0,0.4035086669080489
8768.0,0.3026150749555363
8772.0,0.19918542786545967
8776.0,0.05619110593931576
8780.0,-0.014022709582289994
8784.0,-0.06753995980252221
8788.0,-0.09176083870779085
8792.0,-0.18239731090449182
8796.0,-0.2290100512424615
8800.0,-0.2854679718958785
8804.0,-0.25700565918754625
8808.0,-0.1637455973217577
8812.0,-0.0963937219531605
8816.0,-0.057997718923985156
8820.0,-0.004032031264123832
8824.0,-0.04029606202807224
8828.0,-0.028533890252458737
8832.0,-0.04245966492467965
8836.0,-0.07648527739738274
8840.0,-0.07040673311885315
8844.0,-0.04191586779983511
8848.0,-0.07951916209177333
8852.0,-0.029521850892783807
8856.0,-0.018626521409441828
8860.0,-0.044652676077789374
8864.0,-0.05441280987244773
8868.0,-0.018315852200042594
8872.0,0.004844868228488154
8876.0,-0.019304151914126145
8880.0,-0.020087550035047648
8884.0,0.031114279138220555
8888.0,-0.012567243394622167
8892.0,-0.0466602059735254
8896.0,0.04059433688938438
8900.0,0.03942451057725727
8904.0,0.027281474526468258
8908.0,0.050675777874584535
8912.0,0.09630973441491188
8916.0,0.12300722109330506
8920.0,0.16659255557656114
8924.0,0.17031192884462873
8928.0,0.1802299761643543
8932.0,0.16743459857280515
8936.0,0.19338052353022017
8940.0,0.23776641716617178
8944.0,0.20191219281053974
8948.0,0.2654743621130473
8952.0,0.26333966081128446
8956.0,0.286941769121527
8960.0,0.2960215387416719
8964.0,0.25767902153334976
8968.0,0.28596532850622575
8972.0,0.2833430360603998
8976.0,0.30849585791482265
8980.0,0.30836553288635915
8984.0,0.30605397921394895
8988.0,0.31356617575728607
8992.0,0.3362015560187709
8996.0,0.24739774951420895
9000.0,0.296552552560887
9004.0,0.29231953780926545
9008.0,0.3141525208406172
9012.0,0.20620248027520655
9016.0,0.21923905852792608
9020.0,0.20272293477397757
9024.0,0.21868665420193206
9028.0,0.23287434263423085
9032.0,0.1504686741900027
9036.0,0.10295642349435341
9040.0,0.11764421864925736
9044.0,0.13790764836227265
9048.0,0.04280944762715967
9052.0,0.022616842592485868
9056.0,-0.00622897370872335
9060.0,0.020150807732749156
9064.0,0.009862907661171982
9068.0,-0.06663546343148753
9072.0,-0.0029862243639859473
9076.0,0.01205627026487776
9080.0,-0.03344487899719637
9084.0,-0.017632569643297506
9088.0,0.051568037848135115
9092.0,0.008136854044451539
9096.0,-0.023602179811131795
9100.0,0.0005777375366524058
9104.0,-0.0268342176849498
9108.0,-0.007704014315339165
9112.0,-0.03421374912042591
9116.0,-0.013221962315222827
9120.0,-0.017904964089360677
9124.0,0.025761587365607286
9128.0,0.039223164344633236
9132.0,-0.013708536506676994
9136.0,0.025768447793335293
9140.0,0.07968953487503518
9144.0,-0.005904515368047494
9148.0,-0.02804358493212688
9152.0,0.026726931277678553
9156.0,-0.00762134917094606
9160.0,-0.01704344352346481
9164.0,-0.014942472357685659
9168.0,-0.00809111954328552
9172.0,0.011231069580744267
9176.0,0.03466843742397744
9180.0,0.011133189438960172
9184.0,-0.0067894271428993284
9188.0,0.045982243568708066
9192.0,0.01534562117949445
9196.0,-0.01253774278737991
9200.0,0.022352340745393988
9204.0,0.0454739032942666
9208.0,-0.0032645770790447953
9212.0,0.007847096792878169
9216.0,-0.026908889763968276
9220.0,-0.0012895893748672744
9224.0,0.02142492269951708
9228.0,0.053039082342132726
9232.0,0.02430939290168156
9236.0,0.010525747193357192
9240.0,0.030376882531321314
9244.0,0.03499595727071392
9248.0,-0.012400539338456126
9252.0,0.06385945252748627
9256.0,-0.021764509832108935
9260.0,0.016767137515289743
9264.0,0.025221180309001088
9268.0,-0.007647533121044604
9272.0,-0.04811381681953261
9276.0,0.003822784360591235
9280.0,-0.029027635726084966
9284.0,-0.02344777983007244
9288.0,-0.05871468793097102
9292.0,0.002040592263117271
9296.0,-0.000395772506232549
9300.0,-0.03294776305533996
9304.0,-0.028684648400986654
9308.0,-0.02320512308425626
9312.0,-0.019981609031598714
9316.0,-0.028525011283318264
9320.0,-0.0400304623076391
9324.0,-0.02690416903761466
9328.0,0.03397579020948782
9332.0,-0.0078013920991268386
9336.0,-0.0145934974069686
9340.0,0.01925848963220672
9344.0,0.03895296291806327
9348.0,0.08545022810442574
9352.0,0.12241329195756123
9356.0,0.1266501122668925
9360.0,0.13378267269761332
9364.0,0.13599463902527523
9368.0,0.13272275476569628
9372.0,0.16787990423940116
9376.0,0.22740908811036267
9380.0,0.20311734997142006
9384.0,0.28513073082935875
9388.0,0.23007990218123348
9392.0,0.18031351572882523
9396.0,0.2100819776710608
9400.0,0.2305105093418687
9404.0,0.19516816278958565
9408.0,0.22938948536317966
9412.0,0.1914541885573893
9416.0,0.15102852674099837
9420.0,0.2000978007205294
9424.0,0.06999214652574665
9428.0,0.12118942301391057
9432.0,0.03714021100662875
9436.0,0.015023527026342385
9440.0,-0.00017033551806958842
9444.0,0.030657565661190635
9448.0,-0.011787854399831738
9452.0,-0.002328162687110611
9456.0,-0.035979230619235004
9460.0,0.016785372116777438
9464.0,-0.00720906219019913
9468.0,-0.00670100257782694
9472.0,-0.008995874468408079
9476.0,0.02802522480289786
9480.0,0.04599398370165146
9484.0,-0.08876246822174835
9488.0,-0.06629358496230275
9492.0,-0.053978945308901856
9496.0,-0.11456245592359245
9500.0,-0.03323372743741333
9504.0,0.10997398326496481
9508.0,0.24999511779135436
9512.0,0.25949654930949356
9516.0,0.37470360229737265
9520.0,0.4992842210229486
9524.0,0.5721757389187606
9528.0,0.6732682629953662
9532.0,0.7730461746264972
9536.0,0.9026806987823351
9540.0,0.9483758055391407
9544.0,0.8675997889699405
9548.0,0.7425112086188722
9552.0,0.6867448101778871
9556.0,0.5802072497355657
9560.0,0.4950761832839062
9564.0,0.410771732117953
9568.0,0.3080637624471002
9572.0,0.18911929078487436
9576.0,0.08609470816984581
9580.0,0.03216368536210106
9584.0,-0.051235959811396316
9588.0,-0.09965656896401427
9592.0,-0.16205323779979647
9596.0,-0.20470283110191925
9600.0,-0.3096396877051302
9604.0,-0.23122746427725344
9608.0,-0.18640223373003414
9612.0,-0.08343178557645058
9616.0,-0.041507538669758336
9620.0,-0.07856487968199156
9624.0,-0.0487663421100025
9628.0,-0.08312696962586766
9632.0,-0.007288138310787916
9636.0,-0.044224014303253
9640.0,-0.05701981078382003
9644.0,-0.050369457085797015
9648.0,-0.06669140334817183
9652.0,0.013303387694124466
9656.0,-0.061089743455325106
9660.0,-0.04712175093011681
9664.0,-0.05973371321647332
9668.0,-0.06797049271081534
9672.0,-0.010335925806462105
9676.0,0.04588336777781799
9680.0,-0.032549023651481074
9684.0,-0.057143352180530724
9688.0,-0.019084207361079998
9692.0,0.0199968348757078
9696.0,0.03716457535069663
9700.0,-0.0052202408442219225
9704.0,0.03310272706266898
9708.0,0.06472895078047353
9712.0,0.06455663659213468
9716.0,0.10916508079183768
9720.0,0.09224213960948442
9724.0,0.1637262221853461
9728.0,0.18517889526890208
9732.0,0.19730725336146893
9736.0,0.186447821688483
9740.0,0.1476497519111134
9744.0,0.1885407954072819
9748.0,0.2266261052007762
9752.0,0.2594685405313278
9756.0,0.21224899792990315
9760.0,0.2998867135414299
9764.0,0.27260756741725245
9768.0,0.3022634047352673
9772.0,0.2747177363384303
9776.0,0.24632683641052266
9780.0,0.27880485109542247
9784.0,0.28559348265983364
9788.0,0.2954762686232924
9792.0,0.271951696053725
9796.0,0.20447256424517735
9800.0,0.27613980396441945
9804.0,0.22673682456781813
9808.0,0.25437265526804825
9812.0,0.21012137598207686
9816.0,0.24835054890651986
9820.0,0.20583585281930414
9824.0,0.17263796342619048
9828.0,0.20932565447363102
9832.0,0.13374593425588815
9836.0,0.15123226359811884
9840.0,0.11736397603936419
9844.0,0.09113026541626117
9848.0,0.06747564960612835
9852.0,-0.004482591260687591
9856.0,0.04391978257969127
9860.0,0.05898626132522978
9864.0,0.003348014928240119
9868.0,-0.03185726620085376
9872.0,-0.0031718069870862627
9876.0,-0.020996199835857283
9880.0,-0.005023362549715787
9884.0,-0.010851763277639759
9888.0,0.01766834280285491
9892.0,-0.03087720827922987
9896.0,0.07028338135720791
9900.0,0.009092929036087615
9904.0,-8.32219764784083e-05
9908.0,0.023818089686822183
9912.0,-0.009065831131006764
9916.0,-0.0182883176937426
9920.0,0.03812224266289387
9924.0,-0.04261299048047812
9928.0,-0.032222449046557834
9932.0,-0.04175618566639079
9936.0,-0.05873473681947835
9940.0,-0.002217864910126884
9944.0,0.011276243860866144
9948.0,-0.00283399134752988
9952.0,-0.03352793219303817
9956.0,0.03926853191421493
9960.0,-0.02800497241680298
9964.0,-0.029926918723973885
9968.0,0.04816233313036554
9972.0,-0.037581575441481045
9976.0,-0.00271109859365011
9980.0,0.04602923208599114
9984.0,0.016459150002953813
9988.0,0.033373289057240664
9992.0,-0.0003024056309625847
9996.0,0.007085516348562332
10000.0,0.004981520406014655
10004.0,-0.013477881034043133
10008.0,0.02634740687849073
10012.0,0.008389081342642872
10016.0,0.021660100595784756
10020.0,-0.012866941719119568
10024.0,-0.032419310490895886
10028.0,-0.007587825860147162
10032.0,-0.021891981210578018
10036.0,0.044990781828208884
10040.0,0.0403981145754113
10044.0,0.013047505706890155
10048.0,0.01139905605984122
10052.0,-0.03886953130969113
10056.0,0.09262795651754481
10060.0,0.03465559890697429
10064.0,-0.05209894299034056
10068.0,-0.014319244453387454
10072.0,-0.008490814120577398
10076.0,-0.005582828487489837
10080.0,0.00789470705194869
10084.0,-0.026379927617104598
10088.0,0.032972144378457725
10092.0,0.028703136045281925
10096.0,0.01069613756371086
10100.0,0.041154722798620536
10104.0,-0.06011435661937299
10108.0,-0.027479999300086443
10112.0,0.0056468335989723895
10116.0,0.025897703233515982
10120.0,-0.011781883015872619
10124.0,0.041614395374849414
10128.0,-0.025840366625218318
10132.0,0.018854941617544498
10136.0,0.04780172078486607
10140.0,0.013882622970226157
10144.0,0.004278808847304017
10148.0,0.08769814707778423
10152.0,0.09068951940959694
10156.0,0.07050058953335657
10160.0,0.15833672857467118
10164.0,0.1639175779909302
10168.0,0.17618631610812863
10172.0,0.20876888402414423
10176.0,0.2572104670295075
10180.0,0.23559538182475998
10184.0,0.24311650891306008
10188.0,0.26754927496955416
10192.0,0.27244940261915057
10196.0,0.25932766468092705
10200.0,0.22140944154812925
10204.0,0.22337252510912092
10208.0,0.22242153680318633
10212.0,0.21281253809618667
10216.0,0.16746591443038447
10220.0,0.10591307766316668
10224.0,0.08892933089440358
10228.0,0.05316688583692578
10232.0,0.09907520183071528
10236.0,0.08819077756125163
10240.0,-0.05822590745999397
10244.0,0.008837577523392167
10248.0,-0.06436651761359631
10252.0,-0.05311029694440068
10256.0,0.021489806071660286
10260.0,0.034396796465705086
10264.0,-0.01790204243595443
10268.0,-0.027072512064566717
10272.0,-0.00038701205905136395
10276.0,0.0015888449346307869
10280.0,0.0601548383879766
10284.0,-0.07869593954616244
10288.0,-0.10271645354912141
10292.0,-0.08660847448709147
10296.0,-0.1839803182076503
10300.0,0.002603032441872571
10304.0,0.08099991942560074
10308.0,0.16712351339468956
10312.0,0.2919234516167749
10316.0,0.4227643265596794
10320.0,0.5488581352905901
10324.0,0.6541148189596213
10328.0,0.7487689410292951
10332.0,0.8890314706155248
10336.0,0.877560798369905
10340.0,1.0516916422745335
10344.0,0.9610654050136307
10348.0,0.8101641852846938
10352.0,0.739014311505308
10356.0,0.5921231549174628
10360.0,0.49741553874197714
10364.0,0.37793287860198177
10368.0,0.32455688625163404
10372.0,0.1699566260727834
10376.0,0.10374147305605622
10380.0,-0.0074523780172844846
10384.0,-0.12991002470428176
10388.0,-0.12848014786429915
10392.0,-0.27405293786912643
10396.0,-0.2940349864797375
10400.0,-0.343776204807428
10404.0,-0.2314638848590346
10408.0,-0.10744408942966066
10412.0,-0.15400911356619476
10416.0,-0.08104014644223675
10420.0,-0.08549799165052387
10424.0,-0.08151283945517349
10428.0,0.004605179923055876
10432.0,-0.014651146012365234
10436.0,-0.06307154653735134
10440.0,-0.07526504473786486
10444.0,0.0020188767067391977
10448.0,-0.0638770504294498
10452.0,0.017106543023035294
10456.0,-0.03398559633957569
10460.0,0.040353337645908115
10464.0,-0.051764101736410315
10468.0,-0.09063004801466805
10472.0,-0.10372451521729839
10476.0,0.002493947049988376
10480.0,-0.0058253626654618425
10484.0,-0.004626361541594287
10488.0,-0.043671706675940544
10492.0,0.005472174839495949
10496.0,-0.044420719472401116
10500.0,-0.007215073922183655
10504.0,0.05769590910550586
10508.0,0.04276957587218144
10512.0,0.051142350750106466
10516.0,0.13478620349741544
10520.0,0.09959769740110425
10524.0,0.061957875452220895
10528.0,0.15651993835203645
10532.0,0.1234755596914531
10536.0,0.22700407166185585
10540.0,0.23245429510180204
10544.0,0.25373137279075364
10548.0,0.2701287084173347
10552.0,0.2812958852012423
10556.0,0.30228626109210016
10560.0,0.2877300191551816
10564.0,0.20516539389173521
10568.0,0.27468511034678744
10572.0,0.32379179491260485
10576.0,0.2611959625248409
10580.0,0.28615036568445273
10584.0,0.3512636067889129
10588.0,0.3077597605221839
10592.0,0.30188191354700844
10596.0,0.28425426578516133
10600.0,0.3169813288874685
10604.0,0.21743179279177602
10608.0,0.2776830665380859
10612.0,0.22485492547846278
10616.0,0.24256707759225468
10620.0,0.2678720167535918
10624.0,0.14715043016721346
10628.0,0.15308996917709797
10632.0,0.1396516854784608
10636.0,0.12272058296753499
10640.0,0.11403644494112017
10644.0,0.07012187026631092
10648.0,0.08839630230688844
10652.0,0.04485240146166155
10656.0,0.0502866790023845
10660.0,0.00834343749377211
10664.0,0.007918541803527936
10668.0,-0.0008740595569994164
10672.0,0.023946362036910245
10676.0,-0.008714957525454406
10680.0,-0.019257472550375247
10684.0,-0.023047011452895037
10688.0,-0.03329482828144717
10692.0,-0.006660926532819771
10696.0,0.04398758822625376
10700.0,-0.00128000438450414
10704.0,-0.014606186251613031
10708.0,-0.04789507147039032
10712.0,0.019177391847420924
10716.0,-0.061380171484137214
10720.0,0.029921605993221065
10724.0,-0.019651262219809888
10728.0,0.040857986615844735
10732.0,-0.018015690522881832
10736.0,-0.018023467442778874
10740.0,-0.03365249536808949
10744.0,0.022447327041213664
10748.0,0.011657919949638022
10752.0,0.030848756514566863
10756.0,0.05977458249385695
10760.0,0.023844918690115388
10764.0,-0.07099866861453084
10768.0,0.025767475350253127
10772.0,-0.017498600111772938
10776.0,0.005577307218605406
10780.0,-0.014095386766564973
10784.0,0.0005537634429449304
10788.0,0.037722745269450984
10792.0,-0.013476361003477525
10796.0,0.015213728960302896
10800.0,0.03260935011730576
10804.0,0.05845180942963039
10808.0,-0.04381448841045974
10812.0,0.06432920828807871
10816.0,-0.004282867700202624
10820.0,0.010934061360551204
10824.0,-0.03132064895791849
10828.0,-0.024047165713048668
10832.0,0.03365802158659281
10836.0,0.009797512222287214
10840.0,0.018726044917748305
10844.0,-0.025138027046588927
10848.0,-0.005887929999712266
10852.0,-0.0010385247352214435
10856.0,0.046174899621803864
10860.0,-0.012724911444823187
10864.0,0.015365767235842005
10868.0,-0.01488650896420997
10872.0,-0.020687298336531393
10876.0,-0.04371159333562526
10880.0,0.01077452865905888
10884.0,0.011681188922386997
10888.0,-0.018617061536024142
10892.0,-0.01474006918357688
10896.0,-0.026489250175098362
10900.0,-0.0036674629996732828
10904.0,0.04466006860741427
10908.0,0.025428831864039915
10912.0,0.024609896122840175
10916.0,-0.016235352205105878
10920.0,-0.02633160664257874
10924.0,-0.029566966753545948
10928.0,-0.03376122265071902
10932.0,0.008562242180790013
10936.0,-0.02912641493964779
10940.0,0.013163107873105682
10944.0,0.030241980084190614
10948.0,0.07821704396768972
10952.0,0.09816808022807719
10956.0,0.13353849917163452
10960.0,0.16297539251181384
10964.0,0.199564277518139
10968.0,0.20189471366706668
10972.0,0.22496391044596367
10976.0,0.19167358607065102
10980.0,0.24991233822535727
10984.0,0.2991759714112797
10988.0,0.2551507261702871
10992.0,0.2545074682367725
10996.0,0.3234153875349818
11000.0,0.22085240071333584
11004.0,0.25215034087608257
11008.0,0.2401221551775572
11012.0,0.20553668438275216
11016.0,0.210022799689653
11020.0,0.16706050133309508
11024.0,0.15476762701268795
11028.0,0.0775212662397411
11032.0,0.07541184506864429
11036.0,0.05510290635090907
11040.0,-0.03384586060058199
11044.0,-0.01581925054318949
11048.0,-0.05935849344063377
11052.0,-0.007506606558684379
11056.0,-0.002237470098577295
11060.0,0.003774819995359135
11064.0,0.00857972194924168
11068.0,0.011625445731400945
11072.0,-0.04523982624131189
11076.0,-0.0004304308693180791
11080.0,0.012341086059816804
11084.0,-0.1142802320805895
11088.0,-0.10015399126210525
11092.0,-0.14607951176638878
11096.0,-0.1954531579697029
11100.0,-0.0248304535089016
11104.0,0.08516378298625224
11108.0,0.17291288883261358
11112.0,0.28827591605490954
11116.0,0.4012843937818998
11120.0,0.5256607378034691
11124.0,0.5888596850090106
11128.0,0.7239950088156856
11132.0,0.8466623112990764
11136.0,0.9012250883129488
11140.0,1.0668932019925252
11144.0,0.9698590473215661
11148.0,0.7929684767319204
11152.0,0.705589150758638
11156.0,0.6328171483499191
11160.0,0.48543954643293724
11164.0,0.40574973109349677
11168.0,0.3510461815178132
11172.0,0.2175924850297373
11176.0,0.10452416422216558
11180.0,-0.04337857167945915
11184.0,-0.052529883204455355
11188.0,-0.0518344638469022
11192.0,-0.14636402374028035
11196.0,-0.14774806133574597
11200.0,-0.2958856109104878
11204.0,-0.2495093911994686
11208.0,-0.15761043891632054
11212.0,-0.12320541241936797
11216.0,-0.0681632986931915
11220.0,-0.0679389293460788
11224.0,-0.034824852175528796
11228.0,-0.04288252328844215
11232.0,-0.029271755047596236
11236.0,-0.040921059077720125
11240.0,-0.01512440894605796
11244.0,0.015218232204248665
11248.0,-0.016330821206982125
11252.0,0.03142389612202789
11256.0,-0.02132332617324967
11260.0,0.03667587786600596
11264.0,-0.032402953105406085
11268.0,-0.05110226572907892
11272.0,-0.05034470408469536
11276.0,-0.047322122999561705
11280.0,-0.02534701015096714
11284.0,0.0012586487545584047
11288.0,0.019279009875630346
11292.0,0.015128911470652064
11296.0,0.044664992179335346
11300.0,0.0036032864943767564
11304.0,-0.06664848889730259
11308.0,0.053431709171482274
11312.0,0.07587734820606867
11316.0,0.11102815504696752
11320.0,0.1527990915744303
11324.0,0.1385608645888816
11328.0,0.0789958251904927
11332.0,0.11309682089475392
11336.0,0.1994387401406516
11340.0,0.1931584882336787
11344.0,0.15618671040907817
11348.0,0.3214379196183816
11352.0,0.2491185511438398
11356.0,0.28987032283999187
11360.0,0.321733336879663
11364.0,0.32755279693048955
11368.0,0.272986780135098
11372.0,0.3149079247528964
11376.0,0.30267095162733965
11380.0,0.3490320939678504
11384.0,0.287251819133837
11388.0,0.3058049839928239
11392.0,0.3496458911163728
11396.0,0.30260505458014997
11400.0,0.2675517923719882
11404.0,0.2500100013621669
11408.0,0.2345563446995282
11412.0,0.22754319259412745
11416.0,0.22464463127026119
11420.0,0.28166442620718307
11424.0,0.16126896687568953
11428.0,0.22154987565755863
11432.0,0.20256779907040495
11436.0,0.13496117246910705
11440.0,0.1813889019993061
11444.0,0.1064138693949002
11448.0,0.08159138418555148
11452.0,0.04592270040754129
11456.0,0.046970928072172
11460.0,-0.023819280138060023
11464.0,0.006982853236759682
11468.0,-0.008129608805852935
11472.0,-0.0006118100534165168
11476.0,0.026726153254261437
11480.0,-0.039076904032625856
11484.0,0.030572730033834778
11488.0,0.07909664664169838
11492.0,0.0032945095300793825
11496.0,0.012440242249623892
11500.0,0.013003871318972423
11504.0,0.0010029495916619004
11508.0,-0.035156514045230486
11512.0,0.013843949998183815
11516.0,0.02629359208865684
11520.0,-0.016774710909033624
11524.0,0.01636515482483436
11528.0,-0.011381797922854778
11532.0,0.02498371856451228
11536.0,0.0008455635468662003
11540.0,0.028365259488279157
11544.0,-0.018121957144844377
11548.0,-0.04655984056064908
11552.0,0.0028357930627047824
11556.0,-0.01263988863115374
11560.0,-0.018758518522314065
11564.0,0.0018352908726535072
11568.0,0.043832258472629525
11572.0,0.002660066784905189
11576.0,-0.003220882031048447
11580.0,0.026160711824884875
11584.0,-0.03185963455473057
11588.0,-0.017270999823312972
11592.0,0.046743416202686586
11596.0,-0.0019420416545636392
11600.0,0.006466450921521945
11604.0,0.0405148152910904
11608.0,0.01931154868469956
11612.0,0.007469527731342232
11616.0,0.0064152349937594945
11620.0,-0.040394061284266515
11624.0,-0.0176934307205782
11628.0,0.003958541602444789
11632.0,-0.029013449583588716
11636.0,-0.01761599422690573
11640.0,0.02902886968653419
11644.0,-0.0030004084421750184
11648.0,0.01968991406081532
11652.0,0.008298552805087496
11656.0,0.07177329695125483
11660.0,0.0389430141502011
11664.0,0.06340181584885377
11668.0,-0.007467956350314096
11672.0,-0.039556837118496925
11676.0,0.005802696255786882
11680.0,0.042561680568197695
11684.0,0.10202625924882851
11688.0,-0.021136463488855787
11692.0,-0.029081511524943062
11696.0,-0.01491177800345201
11700.0,-0.05465158037499735
11704.0,-0.06292052837370654
11708.0,-0.009349143265065774
11712.0,-0.006800562185397892
11716.0,0.025388648519030416
11720.0,-0.008315528054379654
11724.0,0.04354710928162552
11728.0,-0.05865616313689845
11732.0,0.0030570252597605487
11736.0,-0.05344029455070499
11740.0,0.05160849498087705
11744.0,0.0185151766036466
11748.0,-0.005537057749185774
11752.0,0.11011102962805158
11756.0,0.09600660477329997
11760.0,0.14271395273700566
11764.0,0.13774314310195196
11768.0,0.2286744488286252
11772.0,0.16364550944929135
11776.0,0.21017699530110956
11780.0,0.2176308745598574
11784.0,0.2973720273791821
11788.0,0.25653203050650336
11792.0,0.18223128589493381
11796.0,0.24598772470574526
11800.0,0.1601194364711433
11804.0,0.26079798141731186
11808.0,0.15485911089659665
11812.0,0.17397997979071703
11816.0,0.16135469148327722
11820.0,0.17306124925796226
11824.0,0.08231478061971041
11828.0,0.08511813148031401
11832.0,0.07753065613876034
11836.0,0.0770715981260569
11840.0,-0.007617620143805098
11844.0,-0.06465657311720541
11848.0,-0.005917260234025464
11852.0,0.013746463963212654
11856.0,0.020710788142387512
11860.0,-0.04813959677812246
11864.0,-0.03463976098092789
11868.0,0.013389408495927891
11872.0,-0.03581907463003116
11876.0,-0.01973054367778569
11880.0,0.06168306696844962
11884.0,-0.07256469339324362
11888.0,-0.09880454659805843
11892.0,-0.1186863675912277
11896.0,-0.14717149859184703
11900.0,-0.003999123050340458
11904.0,0.08371112281254162
11908.0,0.22143266743634143
11912.0,0.30567703266959234
11916.0,0.3823763664397404
11920.0,0.43117755971258737
11924.0,0.6329195437529811
11928.0,0.6353118402991657
11932.0,0.7327218141941285
11936.0,0.8536362515445581
11940.0,1.0118114458189158
11944.0,0.8812438450231627
11948.0,0.7791802683354588
11952.0,0.7124519062833516
11956.0,0.6022386637123274
11960.0,0.4926040010221456
11964.0,0.37597629084716583
11968.0,0.29148332812080535
11972.0,0.210574992799187
11976.0,0.07437447066895879
11980.0,-0.020116346516433212
11984.0,-0.02745762655119928
11988.0,-0.06428802557777072
11992.0,-0.15656139402246505
11996.0,-0.19926726513119508
12000.0,-0.3392527621410989
12004.0,-0.2356344902325885
12008.0,-0.15539580501158903
12012.0,-0.11057725414851016
12016.0,-0.058242929298970486
12020.0,-0.05056117851002292
12024.0,0.002740256329107689
12028.0,-0.048583742538577716
12032.0,-0.058416612209789956
12036.0,-0.08394896867554288
12040.0,-0.03577220669936328
12044.0,-0.06236901673461051
12048.0,-0.07456358214118977
12052.0,-0.04233348859663111
12056.0,-0.07743602887646522
12060.0,-0.001125997433798754
12064.0,-0.018567482236592606
12068.0,-0.007770027489293299
12072.0,0.04647019087046546
12076.0,-0.0027386949751225607
12080.0,-0.043847196756304295
12084.0,-0.047621027910065616
12088.0,-0.036549077137926975
12092.0,-0.027073258745208807
12096.0,0.012563237186032323
12100.0,-0.005029969364551572
12104.0,0.035698943147148464
12108.0,0.02495102588373141
12112.0,0.060793758555525726
12116.0,0.05266913027611478
12120.0,0.07591954587842699
12124.0,0.14884063582888415
12128.0,0.1671156058398207
12132.0,0.1907519904122924
12136.0,0.2005574405776989
12140.0,0.1942485838761789
12144.0,0.24830762080997135
12148.0,0.20719328839607204
12152.0,0.2719626050264185
12156.0,0.25635197659424874
12160.0,0.2573914680589493
12164.0,0.28400350878996916
12168.0,0.27915129560971386
12172.0,0.2596434089824628
12176.0,0.2996764698561402
12180.0,0.19877299590889635
12184.0,0.34442268554537364
12188.0,0.29937603068908636
12192.0,0.3174236862435896
12196.0,0.31464162919491895
12200.0,0.25901021615792086
12204.0,0.27093441396002604
12208.0,0.26491258232009623
12212.0,0.28600626427982795
12216.0,0.23236129394671481
12220.0,0.25323296431145564
12224.0,0.16453224231950386
12228.0,0.14368596032805314
12232.0,0.14718644679001766
12236.0,0.14734377141105784
12240.0,0.14902846947735435
12244.0,0.1395134955297268
12248.0,0.07541881209002554
12252.0,0.08507046308005764
12256.0,0.0092354874812428
12260.0,-0.009097461138533706
12264.0,0.031322033047637206
12268.0,0.039156900822388895
12272.0,0.04698059799838423
12276.0,-0.007364674154832785
12280.0,0.01644975513175298
12284.0,-0.04203283191230122
12288.0,0.030959141643431595
12292.0,-0.025833315988816566
12296.0,0.009753138739211036
12300.0,0.021202226369639584
12304.0,-0.0012067848367812925
12308.0,0.011863406369916736
12312.0,0.0030064446423911997
12316.0,0.02323956277350987
12320.0,0.001554052248204572
12324.0,0.011291931409598534
12328.0,-0.06132754749222155
12332.0,0.00509321825034578
12336.0,-0.021637240510934335
12340.0,0.0015404939305552427
12344.0,-0.02377927335682197
12348.0,-0.03869370460210322
12352.0,0.0025781064459721855
12356.0,0.03186030583874856
12360.0,0.027036944849825717
12364.0,0.030619237677445614
12368.0,-0.0022960360065951255
12372.0,0.009396380908600411
12376.0,2.926128715979697e-05
12380.0,0.00882593506458902
12384.0,0.011319274405696881
12388.0,-0.0486733072384883
12392.0,-0.007605494321344424
12396.0,-0.04464657836951741
12400.0,-0.0004847344852065825
12404.0,0.005208501765343719
12408.0,0.02861452229479186
12412.0,0.038401483613464675
12416.0,-0.00366436667277203
12420.0,-0.012566854231780972
12424.0,-0.012470980847351685
12428.0,-0.0003342365458826072
12432.0,0.0007594346736383513
12436.0,-0.0043709995754990265
12440.0,0.01534958300501803
12444.0,-0.011684556367769052
12448.0,-0.017172971984428655
12452.0,0.02875728066601186
12456.0,-0.00491616313313149
12460.0,0.00611731312431872
12464.0,-0.05773305566839901
12468.0,0.04356257568682741
12472.0,-0.002927084461848034
12476.0,0.04554175664156049
12480.0,0.012082496086899546
12484.0,0.04621564250566809
12488.0,0.06375082982779685
12492.0,-0.05714102102195583
12496.0,0.006320347905094183
12500.0,0.05036239269089396
12504.0,0.005587830153444048
12508.0,0.013720555902714586
12512.0,0.01410833846504045
12516.0,0.032111202763673435
12520.0,-0.02105325152970268
12524.0,-0.06399050142229842
12528.0,-0.022231839847125043
12532.0,0.013310720956989345
12536.0,0.028752128636748482
12540.0,0.007389697861235106
12544.0,0.020789625446416903
12548.0,0.1015833384600171
12552.0,0.06330259472823281
12556.0,0.14894703787281016
12560.0,0.152806109025389
12564.0,0.1911392609950987
12568.0,0.24804711580471345
12572.0,0.2501562223156607
12576.0,0.2602205064940727
12580.0,0.2620978751098584
12584.0,0.26572167607454433
12588.0,0.21238427038996532
12592.0,0.22751587313012975
12596.0,0.2449199847121897
12600.0,0.2759373670310233
12604.0,0.18610184103523794
12608.0,0.2239643542211206
12612.0,0.2071676059129134
12616.0,0.13325483667045168
12620.0,0.13731938017288842
12624.0,0.10935389294653346
12628.0,0.09226558867591741
12632.0,0.020490437107394607
12636.0,0.020370543081832303
12640.0,0.006008880938104115
12644.0,0.044183315333651677
12648.0,-0.05133506238161145
12652.0,-0.03148848302524963
12656.0,0.01674360027988009
12660.0,0.0011144532330511856
12664.0,-0.0283176141391403
12668.0,0.003861418094139964
12672.0,-0.0005025458844283737
12676.0,-0.051626907638107844
12680.0,0.0293503477288221
12684.0,-0.10628168643122912
12688.0,-0.026503020559968546
12692.0,-0.15084426219900923
12696.0,-0.12664397023312057
12700.0,-0.02692341810036014
12704.0,0.0968801479331203
12708.0,0.21078319808886564
12712.0,0.3051285835080629
12716.0,0.4019435063225717
12720.0,0.47252808528766216
12724.0,0.5951506801671483
12728.0,0.723064797223216
12732.0,0.846424251003565
12736.0,0.8882393849221534
12740.0,0.9837614010196695
12744.0,0.9297191876055244
12748.0,0.7976474336078397
12752.0,0.7209352685781814
12756.0,0.6492845973917799
12760.0,0.4446894403664441
12764.0,0.3533629216223459
12768.0,0.32416900980506913
12772.0,0.2391288743181069
12776.0,0.06002575925264447
12780.0,0.017313343857712618
12784.0,-0.06576870859531687
12788.0,-0.12638222073347724
12792.0,-0.19456073726132958
12796.0,-0.2221164985272773
12800.0,-0.27393007341610437
12804.0,-0.19656734619406768
12808.0,-0.1326877579022779
12812.0,-0.1224630318578445
12816.0,-0.07037355341004198
12820.0,4.468612620450729e-05
12824.0,-0.0581144755624141
12828.0,-0.04398858487220701
12832.0,0.015266923231804473
12836.0,-0.034215430488372674
12840.0,-0.08689201060432544
12844.0,-0.05041130056073396
12848.0,-0.026513047584408096
12852.0,-0.0022856306859907194
12856.0,-0.02900727015722524
12860.0,-0.00852092004447735
12864.0,-0.029607852121818413
12868.0,-0.01883338446243169
12872.0,-0.020150501375711748
12876.0,-0.012682703963890068
12880.0,-0.02414141042797257
12884.0,0.00666662582214997
12888.0,0.06649984064776032
12892.0,-0.05417498081244364
12896.0,0.040229418515256646
12900.0,-0.01594175502294263
12904.0,0.061635182961930185
12908.0,0.04452838826553002
12912.0,0.15193163738283838
12916.0,0.010398029909864298
12920.0,0.15258164580607383
12924.0,0.13449807803064207
12928.0,0.16103768391633796
12932.0,0.13833174067701176
12936.0,0.21631878221776354
12940.0,0.17881809356709907
12944.0,0.23180954500939277
12948.0,0.2730099992945664
12952.0,0.24905841255183675
12956.0,0.3046117632630526
12960.0,0.2961619084222696
12964.0,0.2984764638283195
12968.0,0.2674806809795334
12972.0,0.27394195701950386
12976.0,0.316525773291764
12980.0,0.3302211508407412
12984.0,0.33428479264524213
12988.0,0.34562248029280496
12992.0,0.30932333673532847
12996.0,0.2906876237102632
13000.0,0.2846622956756195
13004.0,0.21456770066852737
13008.0,0.17573670541891417
13012.0,0.2427931301323314
13016.0,0.2142959766014239
13020.0,0.23202421239172494
13024.0,0.20293988763951012
13028.0,0.1658816781398296
13032.0,0.15275266593379683
13036.0,0.1502820520776175
13040.0,0.11693147207420931
13044.0,0.16578899714331327
13048.0,7.729341842686865e-05
13052.0,0.09550944156690122
13056.0,-0.021903446292792443
13060.0,-0.08264217697444988
13064.0,-0.002068547540241769
13068.0,-0.030949518098607062
13072.0,-0.03523311587305461
13076.0,0.03292926175866223
13080.0,0.013412502471749545
13084.0,0.008515055515625114
13088.0,-0.04889422561156605
13092.0,0.033420388967787595
13096.0,0.00860961401872913
13100.0,-0.006389193976384852
13104.0,0.01646758422255112
13108.0,-0.03317340806962618
13112.0,0.010927727559998011
13116.0,0.006287900776204761
13120.0,0.031444135632465745
13124.0,-0.0031984087057500437
13128.0,-0.004860230223798482
13132.0,-0.030641469007906666
13136.0,0.016706523480613612
13140.0,0.0038774893491348686
13144.0,-0.01613383539467592
13148.0,0.0370061798619935
13152.0,0.017677047176215273
13156.0,-0.0313922297034622
13160.0,0.008223706063531585
13164.0,-0.013415151262440212
13168.0,-0.004300422164160137
13172.0,0.03864343634939611
13176.0,0.03431378850213283
13180.0,0.04068402934621467
13184.0,-0.04220699361383098
13188.0,0.009753584196031114
13192.0,0.012886638148314714
13196.0,0.03754928400848662
13200.0,0.027776776265376564
13204.0,0.006109926297243182
13208.0,0.03865581566086514
13212.0,-0.021682478618527855
13216.0,0.02381493362905988
13220.0,-0.0104623852368892
13224.0,-0.0074612876394774645
13228.0,0.051145808743349515
13232.0,-0.014393508256270454
13236.0,0.061196200354945114
13240.0,-0.009944490300441177
13244.0,0.025361567415751057
13248.0,0.01284587301910692
13252.0,-0.004971186598345468
13256.0,0.005607319932388277
13260.0,-0.003973498792121972
13264.0,0.039416611496836985
13268.0,0.05313863106320719
13272.0,-0.0483522441412417
13276.0,-0.016241248349863322
13280.0,0.005112313274656518
13284.0,-0.008807194358453212
13288.0,-0.016085025654693278
13292.0,-0.0033005030394705087
13296.0,-0.040370111917132044
13300.0,0.03590478921308843
13304.0,-0.02614782405564818
13308.0,0.053290744647114245
13312.0,-0.010369384720691025
13316.0,0.04073204247611485
13320.0,-0.00616182833203046
13324.0,-0.013787016802233959
13328.0,0.03303730933148036
13332.0,0.02120560747040843
13336.0,-0.0030099693020185525
13340.0,-0.015788376629938383
13344.0,-0.008964206916061358
13348.0,0.12623337606429086
13352.0,0.10722324905983191
13356.0,0.12893947803137587
13360.0,0.14314854605237526
13364.0,0.13713620278317787
13368.0,0.20681816793016977
13372.0,0.18844863179109245
13376.0,0.2618012353261506
13380.0,0.2360967186969476
13384.0,0.21355529488214944
13388.0,0.22511424676268763
13392.0,0.21718099034316296
13396.0,0.23457486453191526
13400.0,0.1708333381115462
13404.0,0.2123105406902309
13408.0,0.18361312791873838
13412.0,0.2148093213044617
13416.0,0.1360686636340368
13420.0,0.14464606985791945
13424.0,0.1767359745897442
13428.0,0.10681521537380524
13432.0,0.10683853248100833
13436.0,0.053840046034515796
13440.0,0.014752604733251358
13444.0,-0.02242408815176674
13448.0,0.05958558521986643
13452.0,-0.01249422095351468
13456.0,-0.027706672487626875
13460.0,-0.07420961441833118
13464.0,0.014672865487446497
13468.0,0.00024272999866100783
13472.0,0.04750912268686742
13476.0,0.016307136616809194
13480.0,0.038697715824426604
13484.0,-0.08380648814284403
13488.0,-0.06316838391678148
13492.0,-0.12120296191941668
13496.0,-0.19167194357066303
13500.0,-0.006292382169025151
13504.0,0.09471987667459504
13508.0,0.13600351377424041
13512.0,0.28274823522291204
13516.0,0.37292780517078833
13520.0,0.4347738671067819
13524.0,0.609760529577139
13528.0,0.6340133991864851
13532.0,0.778372443320862
13536.0,0.7988161430747562
13540.0,0.917939331628848
13544.0,0.8167057369487115
13548.0,0.7813083517357049
13552.0,0.6692993377713722
13556.0,0.5873253244857827
13560.0,0.4547963898756537
13564.0,0.3422688469163602
13568.0,0.28480649591397744
13572.0,0.20665324537548277
13576.0,0.05725614270502266
13580.0,-0.03990727130676601
13584.0,-0.06457678663437652
13588.0,-0.10837718170815268
13592.0,-0.20191235130306326
13596.0,-0.23526525298761672
13600.0,-0.2963064246421409
13604.0,-0.21609085520030236
13608.0,-0.16572308856320228
13612.0,-0.11280811864339864
13616.0,-0.07927698889705961
13620.0,-0.012494524944558792
13624.0,-0.0884185497784392
13628.0,-0.037063359567544724
13632.0,-0.02247399177102239
13636.0,-0.02964875695228738
13640.0,-0.0035724373965431502
13644.0,-0.07041250515772196
13648.0,-0.0006383392038776213
13652.0,0.0025645315135842395
13656.0,-0.02724493568364838
13660.0,0.006678805061141397
13664.0,0.004756197358400556
13668.0,0.07189291470688736
13672.0,-0.03306943036694385
13676.0,-0.03753696954471809
13680.0,-0.04372373637037462
13684.0,-0.005893859966131367
13688.0,-0.004265510880875272
13692.0,0.026047369583329497
13696.0,-0.022600884890055302
13700.0,-0.007942135596111378
13704.0,0.02933334625152849
13708.0,0.07423284733438229
13712.0,0.0004241810274426827
13716.0,0.08866513791150712
13720.0,0.14102151189008352
13724.0,0.1261698379310414
13728.0,0.1230298581743816
13732.0,0.1497525492752369
13736.0,0.16538810709456048
13740.0,0.1849938353571046
13744.0,0.25031188792562153
13748.0,0.22348316122439366
13752.0,0.2519467684247589
13756.0,0.19280349744870914
13760.0,0.2725507261814437
13764.0,0.20904645437395988
13768.0,0.3357141092766721
13772.0,0.2632934044268693
13776.0,0.3180000278088255
13780.0,0.31461706639787507
13784.0,0.2819920003275984
13788.0,0.262634290894158
13792.0,0.3138908542718551
13796.0,0.2330794388281326
13800.0,0.2964511372468951
13804.0,0.3090762594444235
13808.0,0.20963859366347062
13812.0,0.27299082276871395
13816.0,0.25083658994303343
13820.0,0.19616721618048572
13824.0,0.22661444328286498
13828.0,0.15938994792284528
13832.0,0.17390158868971295
13836.0,0.14724392880338244
13840.0,0.17036537143431826
13844.0,0.10075260300057039
13848.0,0.07464420533574002
13852.0,0.0833590060265722
13856.0,0.01704628775395178
13860.0,0.03897086903127864
13864.0,0.003866792255225074
13868.0,-0.03453308884636086
13872.0,0.018951299731300962
13876.0,0.00871101879228848
13880.0,-0.006382801986126194
13884.0,-0.03769444527508647
13888.0,0.0016567351265389962
13892.0,0.008876416257614275
13896.0,0.06093686744369316
13900.0,-0.02682359942194388
13904.0,-0.006956158156452965
13908.0,0.020014859765063238
13912.0,0.017542719501793525
13916.0,-0.047506522173106316
13920.0,-0.018857962533269636
13924.0,0.02957743910970365
13928.0,0.0369656898987044
13932.0,-0.05041148169646749
13936.0,0.0012173861431817757
13940.0,-0.017032776069597813
13944.0,0.012878070035734972
13948.0,-0.026331188414757317
13952.0,0.0010251983271719767
13956.0,-0.003357301133808447
13960.0,0.011847084867768266
13964.0,-0.004038944758158635
13968.0,0.04028228480007087
13972.0,0.009821358652986703
13976.0,-0.018052744893627688
13980.0,0.008044014660114162
13984.0,0.05294604699570249
13988.0,-0.04110752392733967
13992.0,-0.07410568233882302
13996.0,-0.015281451288853089
14000.0,0.040000561465417576
14004.0,0.00903169686670659
14008.0,-0.0014454322085681321
14012.0,0.0005331233090310012
14016.0,-0.026257169949716608
14020.0,-0.028110503370547945
14024.0,0.022655581147692203
14028.0,0.014319688767940953
14032.0,0.02846873273850302
14036.0,-0.02976416237690659
14040.0,0.014545070796739307
14044.0,-0.014916487727444557
14048.0,-0.004856320524505711
14052.0,-0.005306592658021114
14056.0,-0.02882846869884808
14060.0,0.012609078759380778
14064.0,-0.00596762425026191
14068.0,0.05215223869710507
14072.0,0.06527509126002795
14076.0,-0.040339588556237024
14080.0,-0.013801971625995259
14084.0,-0.02820025658560809
14088.0,0.03874445930252001
14092.0,-0.006465823488067967
14096.0,-0.03733060422671172
14100.0,-0.0071042178189302104
14104.0,-0.0010922845148005431
14108.0,0.0024663758113252733
14112.0,-0.025494999417665698
14116.0,-0.007444073500204303
14120.0,-0.049070211348862754
14124.0,0.02030626316218034
14128.0,-0.08473716649280592
14132.0,-0.020252629910627047
14136.0,0.012199599424020867
14140.0,-0.002752213862544816
14144.0,-0.00317753284141227
14148.0,0.0678546827443543
14152.0,0.044386793298326586
14156.0,0.15883678611327606
14160.0,0.09766131662905281
14164.0,0.14474516507810842
14168.0,0.22354242790315257
14172.0,0.18718803467089146
14176.0,0.23815677591397594
14180.0,0.23883535187220659
14184.0,0.2499064039672301
14188.0,0.2536790256659458
14192.0,0.23160557267572812
14196.0,0.23027710533541948
14200.0,0.2837339495574512
14204.0,0.24441068752490536
14208.0,0.22001803456159164
14212.0,0.2229878405122786
14216.0,0.16331325055458096
14220.0,0.20154808004259148
14224.0,0.13744664508433918
14228.0,0.0731803045326414
14232.0,0.07926629051345221
14236.0,-0.018341661601914548
14240.0,0.05224498592900322
14244.0,-0.013686203804292639
14248.0,0.0036987465949498647
14252.0,0.010299575081073545
14256.0,-0.03559861366230782
14260.0,0.06094047712000793
14264.0,-0.007149865790917353
14268.0,-0.0001646128840294679
14272.0,0.013385666648116766
14276.0,0.05528258690694102
14280.0,-0.0012563829362161167
14284.0,-0.029948851080209095
14288.0,-0.12190460829244604
14292.0,-0.11627894638886059
14296.0,-0.19321560479520777
14300.0,-0.038295776170259616
14304.0,0.07081632589451374
14308.0,0.21751008419798284
14312.0,0.33410339530081085
14316.0,0.38760582700365054
14320.0,0.5791368048872368
14324.0,0.596356829256118
14328.0,0.7540904986541764
14332.0,0.7988921392278198
14336.0,0.9307767441794774
14340.0,0.9917132368808239
14344.0,0.9508912224520377
14348.0,0.7884177860815105
14352.0,0.6495671727912762
14356.0,0.5969719145635116
14360.0,0.45456207581266306
14364.0,0.4277398793478479
14368.0,0.2642770540548359
14372.0,0.24206916600813203
14376.0,0.10869491410119846
14380.0,0.0073254282460423455
14384.0,-0.031205173849166327
14388.0,-0.15386409793710606
14392.0,-0.16734088117829748
14396.0,-0.21596929785531654
14400.0,-0.2496108199182387
14404.0,-0.2208753650514489
14408.0,-0.16452864364926187
14412.0,-0.13408121831123176
14416.0,-0.04259016189945092
14420.0,-0.1098247230847545
14424.0,-0.06766742793238656
14428.0,-0.022436181812231424
14432.0,-0.07562843111143575
14436.0,-0.04254552702616524
14440.0,-0.0323751331202942
14444.0,-0.03974324047172967
14448.0,-0.020689426541258854
14452.0,-0.042095119528783906
14456.0,-0.02131284669470348
14460.0,0.005781447593140542
14464.0,-0.03624536916537236
14468.0,-0.01759609030412377
14472.0,0.007459844349671688
14476.0,0.05162263535403677
14480.0,-0.024782948717889896
14484.0,0.0025504060531011587
14488.0,-0.05049821661765202
14492.0,0.008727451273764791
14496.0,-0.00937995130250577
14500.0,-0.021041400531158726
14504.0,0.005388935627075087
14508.0,0.03573787999244936
14512.0,0.09071518527891231
14516.0,0.03728819710415608
14520.0,0.09837452377086564
14524.0,0.11516705470307845
14528.0,0.11472926578658055
14532.0,0.16747052681135513
14536.0,0.15503025985796762
14540.0,0.17647713031191387
14544.0,0.24699145858223615
14548.0,0.3094326713586828
14552.0,0.25795736028128363
14556.0,0.2229440448048462
14560.0,0.25605968935415724
14564.0,0.2831996816627778
14568.0,0.26647469886080755
14572.0,0.27143637721622493
14576.0,0.292850186267561
14580.0,0.3381897794460984
14584.0,0.3287165569586125
14588.0,0.30380973370461256
14592.0,0.27725343699246
14596.0,0.29128261946472267
14600.0,0.25109232595261266
14604.0,0.28164946167214266
14608.0,0.30767621661959044
14612.0,0.2321150928193973
14616.0,0.23731973714129206
14620.0,0.20734249523792836
14624.0,0.1883301245643762
14628.0,0.17407329860341428
14632.0,0.16411913739659026
14636.0,0.09851337334480983
14640.0,0.11333708933412225
14644.0,0.07235451139975851
14648.0,0.07196989439690957
14652.0,0.08169073326989001
14656.0,0.032875017187757316
14660.0,-0.01787176473343473
14664.0,0.01601901689582238
14668.0,0.018763339069314985
14672.0,-0.051401167062430086
14676.0,-0.02656732417079506
14680.0,-0.042700617992866764
14684.0,0.005719581224970159
14688.0,0.0038621483480904225
14692.0,0.023081671885960876
14696.0,0.020593719666115593
14700.0,-0.05238543514384452
14704.0,-0.020702642651286553
14708.0,0.012757635928474193
14712.0,0.05142736090952005
14716.0,0.05826367047662857
14720.0,-0.024290226050265373
14724.0,0.005665082144330086
14728.0,0.023365836698745566
14732.0,0.028565001354430002
14736.0,0.020305241447881865
14740.0,-0.047180767373491715
14744.0,0.01564407560976703
14748.0,0.011819376111763924
14752.0,0.004593292424594771
14756.0,-0.02331816262915475
14760.0,-0.019720452164426912
14764.0,0.04037343689331955
14768.0,-0.021436534758368677
14772.0,0.0030599127464027353
14776.0,-0.04451814428474976
14780.0,-0.00240213964584488
14784.0,-0.04799845715098331
14788.0,-0.054527796165476775
14792.0,-0.019115335134414102
14796.0,-0.02585364658522381
14800.0,0.018283287071281854
14804.0,0.007706530460306456
14808.0,-0.02574332411487727
14812.0,-0.0038347715591571982
14816.0,0.009259368555628845
14820.0,0.023594883273165147
14824.0,0.057093249409027845
14828.0,-0.018711805971184423
14832.0,0.01791655357724396
14836.0,-0.01767025356645994
14840.0,0.008193947050949715
14844.0,-0.020920673406587546
14848.0,0.015670407054079426
14852.0,0.0016116470031576503
14856.0,0.006719319722886899
14860.0,0.031930002202623924
14864.0,0.019099357424755686
14868.0,-0.011490308657647559
14872.0,0.045041950283162824
14876.0,0.030332666421647853
14880.0,-0.010842642884000058
14884.0,-0.038032591746026224
14888.0,-0.006971431099701654
14892.0,0.010828154669695491
14896.0,-0.02158620447446035
14900.0,-0.0005083445434002849
14904.0,-0.03746949514108775
14908.0,0.024943957728378218
14912.0,0.002387002733239458
14916.0,0.004336792814597992
14920.0,-0.0305421001005716
14924.0,0.019553068075817203
14928.0,-0.02432241407694336
14932.0,0.013954162964499752
14936.0,-0.01805887648813203
14940.0,-0.005650626711475827
14944.0,0.015487752834794541
14948.0,0.03016419116588878
14952.0,0.04105728346327187
14956.0,0.10127763318880587
14960.0,0.14549026964385078
14964.0,0.17084923760084303
14968.0,0.21139453756113236
14972.0,0.18261135254817912
14976.0,0.2740574169112676
14980.0,0.23983377340174192
14984.0,0.27793234001576816
14988.0,0.1948070450680686
14992.0,0.2177288200304504
14996.0,0.20061167793396806
15000.0,0.22250969685500677
15004.0,0.1978281397712768
15008.0,0.21388687312897595
15012.0,0.22485570434546112
15016.0,0.1487252586282275
15020.0,0.14179855052856352
15024.0,0.11104531258964517
15028.0,0.14240105663953176
15032.0,0.0577895093016251
15036.0,0.06141849518774596
15040.0,-0.004515277252820469
15044.0,-0.02110475169018033
15048.0,0.011354848257566436
15052.0,-0.01207055964570968
15056.0,0.08572916292011369
15060.0,-0.009185075945704117
15064.0,-0.026532326405342147
15068.0,-0.04608840279385558
15072.0,0.024959334787186493
15076.0,-0.07333948569507033
15080.0,0.013046268829836777
15084.0,-0.027484255961484336
15088.0,-0.0440766489467049
15092.0,-0.14862702461419278
15096.0,-0.1489897123861216
15100.0,0.02349749668796522
15104.0,0.09443490918880355
15108.0,0.22113822536517605
15112.0,0.28436833785672694
15116.0,0.41440444262934034
15120.0,0.4266218966268137
15124.0,0.5555266278335883
15128.0,0.6874940714454891
15132.0,0.7482815500744727
15136.0,0.9011071940908972
15140.0,0.9820638058711733
15144.0,0.8542448619473935
15148.0,0.7341779282074746
15152.0,0.6745215818979786
15156.0,0.6027956976327304
15160.0,0.5841985277444353
15164.0,0.39847550241129187
15168.0,0.33636764366134436
15172.0,0.18395346975767504
15176.0,0.08411681911060978
15180.0,-0.056462714010612654
15184.0,-0.018146770389316745
15188.0,-0.10235094853264334
15192.0,-0.1603162507763623
15196.0,-0.26166670488100535
15200.0,-0.3051784965655747
15204.0,-0.22321750530082216
15208.0,-0.1917623907765656
15212.0,-0.15333558212355375
15216.0,-0.08909218035052502
15220.0,-0.01647437676088437
15224.0,-0.028189032507628425
15228.0,-0.07718265084261058
15232.0,-0.02335179614944
15236.0,-0.06358525281992307
15240.0,-0.08897782674411321
15244.0,-0.008205381765270987
15248.0,-0.0008318565614132099
15252.0,-0.037107529359388845
15256.0,-0.011190819176832586
15260.0,-0.003993762065256073
15264.0,-0.038213762809184745
15268.0,-0.02482852681537962
15272.0,-0.08686566564821963
15276.0,0.018730948711619524
15280.0,0.022521950864165412
15284.0,-0.03467882029754689
15288.0,-0.05834039941534396
15292.0,-0.05553050441212488
15296.0,0.017194471617968336
15300.0,-0.007703341977702977
15304.0,0.01507819229314001
15308.0,0.05132143972913011
15312.0,0.07119593399663621
15316.0,0.06784267839317379
15320.0,0.11104380396202444
15324.0,0.13166508897731485
15328.0,0.1250546276245662
15332.0,0.14508160048408833
15336.0,0.1949584101165703
15340.0,0.229551934702364
15344.0,0.2309989167010699
15348.0,0.2995591764223538
15352.0,0.19309546807884398
15356.0,0.24593617274547327
15360.0,0.29528360164749723
15364.0,0.2648579893743341
15368.0,0.2770317279962115
15372.0,0.2695110245555128
15376.0,0.31136938111152596
15380.0,0.3102993570333148
15384.0,0.27076854119824195
15388.0,0.24619108494996156
15392.0,0.3206795332714899
15396.0,0.2394435993096869
15400.0,0.31508818607697436
15404.0,0.31029018916355344
15408.0,0.2773218690722502
15412.0,0.2562183937652016
15416.0,0.21214008269610996
15420.0,0.1767721192929466
15424.0,0.21017428458854928
15428.0,0.16166197134391105
15432.0,0.13849047230455483
15436.0,0.0830834615843547
15440.0,0.08335217383772568
15444.0,0.06404052250365974
15448.0,0.027189687344413016
15452.0,0.0658189342204692
15456.0,-0.0011400532877050597
15460.0,-0.009882586785461937
15464.0,0.01898196758554629
15468.0,-0.021103644547829502
15472.0,-0.013752180649032447
15476.0,0.03377803247718029
15480.0,0.015962816859709045
15484.0,-0.02984272144105052
15488.0,0.006322386460687665
15492.0,-0.013608015579346896
15496.0,0.02767795420136267
15500.0,-0.01956522754832924
15504.0,0.007991929599863617
15508.0,-0.00032179361164343687
15512.0,0.012692568968382766
15516.0,0.06594973855913762
15520.0,-0.009772356737668145
15524.0,0.027576685585555406
15528.0,0.008645008660350275
15532.0,-0.03830909567209495
15536.0,-0.025027880015096413
15540.0,-0.03606261507039925
15544.0,-0.05707688062582164
15548.0,-0.04102431921566949
15552.0,0.005161019580736876
15556.0,-0.01905912184570218
15560.0,0.03118852181273655
15564.0,-0.0007409161565423599
15568.0,0.06016823775861881
15572.0,-0.04138520407847709
15576.0,0.014917389811869769
15580.0,0.026257277202006015
15584.0,0.014279140682738507
15588.0,0.019046838374125224
15592.0,0.025612652819402584
15596.0,0.06103964166504648
15600.0,0.01920528930408213
15604.0,-0.03197178300967952
15608.0,-0.05995903786318685
15612.0,0.02287101273053987
15616.0,0.031907623719403894
15620.0,0.0014071239091940648
15624.0,0.03426535698100298
15628.0,0.021112897988657408
15632.0,0.021111007998036488
15636.0,0.029801900149487956
15640.0,0.027496155360847395
15644.0,-0.01613979911304975
15648.0,-0.01857834393650006
15652.0,-0.024849783324557628
15656.0,0.05098281887808934
15660.0,-0.03947070558103446
15664.0,-0.06623242457778697
15668.0,0.0034692072956507337
15672.0,-0.022540899755788664
15676.0,0.011308159226122902
15680.0,0.03017893782523161
15684.0,-0.008788584987202903
15688.0,0.0032961521892072333
15692.0,-0.034695142872691966
15696.0,-0.008944831558462813
15700.0,-0.005765430552355691
15704.0,-0.012584433031848367
15708.0,0.033599797549409706
15712.0,-0.004213706682311647
15716.0,0.04138359996040713
15720.0,0.02744007657594376
15724.0,-0.05622657566929947
15728.0,0.022193154029953126
15732.0,0.00203901204035326
15736.0,0.017892849827105872
15740.0,0.020876258022102596
15744.0,0.005674227250581133
15748.0,0.034668270285864736
15752.0,0.10350833170354831
15756.0,0.06998602249593935
15760.0,0.1495151531532824
15764.0,0.16331364145496016
15768.0,0.2030753372541056
15772.0,0.21460167989973866
15776.0,0.2316050268938071
15780.0,0.2762361430955543
15784.0,0.2775812268350484
15788.0,0.26996372782487504
15792.0,0.2207732445717853
15796.0,0.2088727206183319
15800.0,0.2793419691668899
15804.0,0.24909458086306144
15808.0,0.25222936160436976
15812.0,0.21144200923480058
15816.0,0.13105207694314455
15820.0,0.17266321434029486
15824.0,0.07287629661491773
15828.0,0.0616462887193721
15832.0,0.059330253729742835
15836.0,0.05018145540123789
15840.0,0.010214160946077298
15844.0,-0.009619086025130926
15848.0,-0.03869274928060631
15852.0,0.0029876591494533426
15856.0,-0.003929525472519624
15860.0,0.05686920148683365
15864.0,-0.020859466254079286
15868.0,-0.021927774438373914
15872.0,0.037087101424732184
15876.0,-0.013979956025478614
15880.0,0.018396596169045903
15884.0,-0.05391587090632709
15888.0,-0.0635272850275945
15892.0,-0.11891111495846522
15896.0,-0.15362545927149207
15900.0,0.018743328097918
15904.0,0.09381448758053615
15908.0,0.17561556033550163
15912.0,0.32194628025686717
15916.0,0.428589088559942
15920.0,0.4997490248430154
15924.0,0.6327702089759635
15928.0,0.6581697910293017
15932.0,0.7905100678164342
15936.0,0.905540688236756
15940.0,1.0021490620637539
15944.0,0.9023672601813557
15948.0,0.8288943395044784
15952.0,0.6993272008186032
15956.0,0.5900295379122134
15960.0,0.4715320028662782
15964.0,0.39719718397477255
15968.0,0.33063152483252933
15972.0,0.1518509908293658
15976.0,0.1457780905897294
15980.0,-0.009909573663437263
15984.0,-0.06217326964842397
15988.0,-0.0881266003180237
15992.0,-0.1442993624260845
15996.0,-0.25668902217144324
16000.0,-0.3689675385800621
16004.0,-0.22077363853605372
16008.0,-0.20116864576000798
16012.0,-0.12271431781880553
16016.0,-0.028761696709029047
16020.0,-0.07648818125355486
16024.0,-0.0668843438060091
16028.0,-0.05991180911438759
16032.0,-0.014141798489095435
16036.0,-0.042051237880421165
16040.0,-0.06422136531354397
16044.0,-0.05583566781854882
16048.0,-0.03455322293930919
16052.0,-0.0038436921927499125
16056.0,-0.01532842638954691
16060.0,0.002751523323924584
16064.0,-0.024268743471817934
16068.0,-0.01679896729062723
16072.0,-0.01615909919749299
16076.0,-0.014932224891284162
16080.0,0.01405844271057204
16084.0,-0.003979179613111114
16088.0,-0.03051996006159246
16092.0,-0.014305330302299819
16096.0,-0.02066000380645069
16100.0,-0.02788651343825483
16104.0,0.04552434058343014
16108.0,0.06464207425801702
16112.0,0.07487091138780635
16116.0,0.039921117052926
16120.0,0.16118434834642037
16124.0,0.10895352262781488
16128.0,0.11418196124925761
16132.0,0.17560488329024482
16136.0,0.13687083426150348
16140.0,0.18610932026384058
16144.0,0.23290813355330275
16148.0,0.29197548938220474
16152.0,0.2502153184274393
16156.0,0.2772817512557673
16160.0,0.3208660536819783
16164.0,0.28702974052957
16168.0,0.2568461113893461
16172.0,0.3133050494347782
16176.0,0.2816850044683819
16180.0,0.34307640640256054
16184.0,0.3222349638695679
16188.0,0.3349499895844251
16192.0,0.32479696110786044
16196.0,0.30573766781212314
16200.0,0.36087931728927075
16204.0,0.30824224960753904
16208.0,0.2553418594947742
16212.0,0.29618764676489084
16216.0,0.29371553312224374
16220.0,0.19414736678299438
16224.0,0.19287302782101856
16228.0,0.1988400607490804
16232.0,0.14900326464347308
16236.0,0.1632955453429243
16240.0,0.0900156003790008
16244.0,0.1051283706944117
16248.0,0.11118203860108355
16252.0,0.05326861568617523
16256.0,0.04886886289750007
16260.0,-0.007712974781278832
16264.0,-0.08304217279934521
16268.0,0.041501532097536445
16272.0,-0.009186334973038756
16276.0,-0.025112818745121557
16280.0,0.026854713714355574
16284.0,0.01509346000236693
16288.0,0.012510072414923768
16292.0,0.042380736827610836
16296.0,-0.049883691711590405
16300.0,-0.017023040148908333
16304.0,-0.03420877836207892
16308.0,0.046903044334027214
16312.0,0.04292561019552697
16316.0,-0.007727633219146097
16320.0,0.03530612153200438
16324.0,0.02541433183742921
16328.0,0.04687654537012209
16332.0,-0.018541189679676322
16336.0,0.05518451999961089
16340.0,0.040538340345260104
16344.0,0.010102923538169979
16348.0,0.031104832480317177
16352.0,-0.02276787840299232
16356.0,-0.023200010762579527
16360.0,0.035148632038598894
16364.0,-0.012930496320433013
16368.0,0.0029491743930369304
16372.0,0.04155062280412052
16376.0,0.012757046212014242
16380.0,-0.0047727640996616675
16384.0,0.039015680836838665
16388.0,-0.01994811913781726
16392.0,-0.03558545706085742
16396.0,0.025769217587216005
16400.0,0.012804021903155988
16404.0,-0.013033571067526308
16408.0,-0.00987096771607221
16412.0,0.019202695139901912
16416.0,-0.027305781214327116
16420.0,-0.03516454312754054
16424.0,0.011753361157615959
16428.0,-0.038727201901438954
16432.0,0.012109606970392036
16436.0,-0.005416186970477987
16440.0,0.05227132852791565
16444.0,-0.04017978144622618
16448.0,-0.00697363915620147
16452.0,0.028845227472140682
16456.0,-0.0023547936035285847
16460.0,-0.0538673900454334
16464.0,-0.026214113697380068
16468.0,0.00042837407137864613
16472.0,0.013193674284391617
16476.0,-0.005866495736980034
16480.0,0.03103809288035915
16484.0,-0.06732635505786952
16488.0,0.01062065077343341
16492.0,-0.052823416346862356
16496.0,-0.0016357369021886307
16500.0,0.0471326639831382
16504.0,0.03424314169496508
16508.0,0.01759912777993002
16512.0,0.018414019333346868
16516.0,0.015609377597187713
16520.0,0.02492721919354066
16524.0,-0.004228431231820659
16528.0,-0.005702130569001372
16532.0,0.009350280437864879
16536.0,0.028372945421645132
16540.0,0.01551732921585462
16544.0,0.013450334570755725
16548.0,0.022204136435113257
16552.0,0.06382078252706185
16556.0,0.09023368015080427
16560.0,0.09797206812172124
16564.0,0.1717651187975118
16568.0,0.13188171662524223
16572.0,0.14952876128863746
16576.0,0.2022949032777201
16580.0,0.21341307438345675
16584.0,0.23042185638591864
16588.0,0.27762166722000564
16592.0,0.2077022475101512
16596.0,0.1960753473350918
16600.0,0.24677216403587393
16604.0,0.17545287548345656
16608.0,0.21567996567955003
16612.0,0.1750095267457184
16616.0,0.21700244688021558
16620.0,0.14695170034799454
16624.0,0.0988834522856707
16628.0,0.12766343316891446
16632.0,0.03238198521454873
16636.0,0.04606599833681206
16640.0,-0.01836268667779555
16644.0,-0.030781386974754712
16648.0,-0.018205088994665428
16652.0,-0.004893020837662919
16656.0,-0.002979415832226783
16660.0,-0.06806239703856172
16664.0,-0.020073873665461612
16668.0,-0.0031924077139140086
16672.0,0.025368998191523794
16676.0,0.006686080558531647
16680.0,-0.02226601711041153
16684.0,-0.028399922051437862
16688.0,-0.029941192090537028
16692.0,-0.0912950866130935
16696.0,-0.16799632286153315
16700.0,0.03709947249538864
16704.0,0.120035680876433
16708.0,0.18803558333060325
16712.0,0.3384675790188041
16716.0,0.37418107765844677
16720.0,0.4603669678269294
16724.0,0.5409345877576347
16728.0,0.6747039040316538
16732.0,0.8053139023237239
16736.0,0.8720896974484388
16740.0,0.9414279452069166
16744.0,0.8655911685534122
16748.0,0.8172287782190757
16752.0,0.7027690739028568
16756.0,0.592743356525823
16760.0,0.4896242270952192
16764.0,0.3698706352337617
16768.0,0.318720185232568
16772.0,0.19765573469602005
16776.0,0.07419716987973587
16780.0,0.0036825754177061414
16784.0,-0.07630228852695668
16788.0,-0.07227342712767648
16792.0,-0.1765752746276855
16796.0,-0.22977025656014918
16800.0,-0.29913157431596205
16804.0,-0.2373574087272308
16808.0,-0.1888612622134336
16812.0,-0.09555860316814532
16816.0,-0.08123419211385473
16820.0,-0.038924191610558295
16824.0,-0.0021324799025162905
16828.0,-0.10910539904987049
16832.0,-0.0108371767924113
16836.0,-0.07641426744824337
16840.0,-0.05872845824540974
16844.0,-0.0738802250462137
16848.0,0.026323889455305144
16852.0,-0.09345032834503082
16856.0,0.015544607224109313
16860.0,0.04961378047373019
16864.0,0.014562633041761256
16868.0,-0.014812717756090304
16872.0,0.009733173688107433
16876.0,-0.04533192621282654
16880.0,-0.029626044653550232
16884.0,-0.028407435473094322
16888.0,0.026298042013725095
16892.0,0.04296951032502372
16896.0,-0.00033516831508004826
16900.0,-0.013507710843218603
16904.0,-0.04154817392906955
16908.0,0.08945383416966479
16912.0,0.0596500908714223
16916.0,0.09902694249671816
16920.0,0.10139471477255428
16924.0,0.1251042327219065
16928.0,0.15553064322098736
16932.0,0.19837814030057196
16936.0,0.2221291530087037
16940.0,0.23739959704982652
16944.0,0.20541947323151682
16948.0,0.25382994445949025
16952.0,0.23127638418401505
16956.0,0.22077726621879973
16960.0,0.28212611989981556
16964.0,0.2600492771643191
16968.0,0.3649932916440594
16972.0,0.28012749747234617
16976.0,0.26570819470677715
16980.0,0.31031697733053376
16984.0,0.3195089335882203
16988.0,0.2957976420251908
16992.0,0.26735385751059315
16996.0,0.24828518574741593
17000.0,0.24061669724063933
17004.0,0.2577365705838247
17008.0,0.2413752926519824
17012.0,0.21265415934196985
17016.0,0.23256696906415167
17020.0,0.18346543852788189
17024.0,0.21193232073574586
17028.0,0.1839554327120534
17032.0,0.1294061855836904
17036.0,0.10633157209238739
17040.0,0.07950773840802658
17044.0,0.07650417379342356
17048.0,0.10477702818887598
17052.0,0.05763625771711076
17056.0,0.026150191080916787
17060.0,-0.03641234040011168
17064.0,0.0016711871532348102
17068.0,-0.02384708759935834
17072.0,0.021858343969014395
17076.0,-0.03438931656932772
17080.0,0.019462697864876696
17084.0,-0.02639450258196756
17088.0,-0.04974999883478131
17092.0,0.035599915289377414
17096.0,-0.02723401794880962
17100.0,0.04007389789834455
17104.0,0.003980771763723833
17108.0,0.023083032756777963
17112.0,-0.004063611711601641
17116.0,0.005504262294393491
17120.0,-0.01706163319011519
17124.0,0.02753091612938566
17128.0,-0.08899127263258354
17132.0,0.012706469864083973
17136.0,0.02520056566059876
17140.0,0.002167689134925847
17144.0,-0.004356410554374259
17148.0,-0.011872559043110794
17152.0,0.005925457966650239
17156.0,0.027604173180103945
17160.0,-0.01988220784443782
17164.0,-0.013127624860865718
17168.0,-0.00983827623639317
17172.0,-0.04147296981887987
17176.0,0.011883229069577757
17180.0,-0.0006459022752691677
17184.0,0.029017090967253488
17188.0,-0.04212669522959414
17192.0,-0.020539646092782818
17196.0,0.030327974334405053
