time,value
0.0,0.008176760561683318
4.0,-0.0026971105822618424
8.0,0.0065651547460397275
12.0,-0.0011513967416821964
16.0,0.008835683640218401
20.0,-0.009180412873513729
24.0,0.013792985604999653
28.0,0.003943097442906386
32.0,-0.012419475350865643
36.0,-0.0013390079104496227
40.0,0.016468176969574463
44.0,0.001434281469240278
48.0,-0.01112124357602331
52.0,0.004088887754260983
56.0,0.007701484076689448
60.0,0.0023603798789527826
64.0,-0.010844699851261796
68.0,-0.00684231812874514
72.0,0.002904103976033754
76.0,0.0010475461297078184
80.0,-0.009939612071075162
84.0,0.0003770475865497194
88.0,0.002131099381952482
92.0,0.003952345876822949
96.0,-0.028715542343527523
100.0,-0.0014614248444031078
104.0,-0.014666838967490976
108.0,0.014540288885345962
112.0,0.014262905261641137
116.0,-0.009014492340774208
120.0,-0.01104900221359769
124.0,-0.004682227578727601
128.0,-0.020904017857527334
132.0,-0.01750028835021027
136.0,-0.01632039628534112
140.0,0.012362886774355566
144.0,0.009134009963839186
148.0,-0.001337158618650785
152.0,0.02381472953872503
156.0,-0.00017260649702998578
160.0,-0.005600305136248564
164.0,-0.0006741611382777103
168.0,0.007162876562782632
172.0,0.0011819139567241484
176.0,0.006164094030690462
180.0,0.005718158210346631
184.0,-0.004185387456365604
188.0,-0.0048247180393227234
192.0,-0.005170519037085506
196.0,-0.014907576102834455
200.0,-0.015179230807295207
204.0,0.01612773453728699
208.0,0.008318398252747964
212.0,0.013393373448397502
216.0,0.0054531701399301935
220.0,0.0007617018112388191
224.0,-0.002485935080535437
228.0,-0.0020040484323621426
232.0,0.01767789284256802
236.0,-0.0015624918276811387
240.0,0.007962606275122307
244.0,-0.006345151459318055
248.0,-0.001765026588271941
252.0,0.010580072256980879
256.0,0.015875747215192554
260.0,-0.004658427436965198
264.0,-0.007026213849626
268.0,-0.0012428315917486022
272.0,-0.026106854403761783
276.0,-0.004356682800766942
280.0,-0.0002027440460516027
284.0,-0.006882503763708403
288.0,-0.007129168934545714
292.0,-0.006235531633025231
296.0,0.002666009492776059
300.0,-0.00146699778992957
304.0,0.0024984429747186092
308.0,-0.013486473016250385
312.0,-0.0143618310312161
316.0,-0.0021049198136337253
320.0,-0.002142353866798247
324.0,0.0039664422786496525
328.0,-0.018541985321368477
332.0,-0.005866207667345803
336.0,-0.004026282551813607
340.0,-0.0005963999156409323
344.0,0.002443911317780828
348.0,0.00321411187284742
352.0,-0.009075476518603985
356.0,0.006208176929507067
360.0,0.008627231773658052
364.0,-0.011236067641398865
368.0,0.010734704802457506
372.0,-0.00816642588914871
376.0,-0.0024550530177003304
380.0,0.001857122378094103
384.0,0.018597394388590163
388.0,-0.0028601765712047817
392.0,-0.007622106354128617
396.0,0.010508879417875008
400.0,0.016137579279524562
404.0,0.0015000569806182277
408.0,0.016437022856208253
412.0,0.006435195002424697
416.0,0.013170116704399382
420.0,-0.008202117163530243
424.0,0.011797112315496705
428.0,0.006371492717329675
432.0,0.0032001174768889447
436.0,-0.014669603755766933
440.0,0.01585873502651272
444.0,-0.008833261671586566
448.0,-0.00022218577515637546
452.0,0.016051570083871675
456.0,-0.010912313211096288
460.0,0.005237539811797898
464.0,0.006239933926710601
468.0,-0.01712245888589912
472.0,-0.005387665606972677
476.0,0.002021277575813114
480.0,-0.011392832130260393
484.0,-0.008899188272119236
488.0,0.009245467440886501
492.0,0.017353464337980448
496.0,-0.0022112607744717654
500.0,0.01423623326395785
504.0,-0.004691584185106768
508.0,0.0155875637335622
512.0,-0.0027978062926412007
516.0,0.00477049058151389
520.0,0.0026459637433248417
524.0,0.02032824807451983
528.0,0.005493121971237136
532.0,-0.017729182238041447
536.0,0.011723434643305074
540.0,0.005772451007749652
544.0,0.03079291902837611
548.0,0.052692243768453856
552.0,0.09081621436424514
556.0,0.11834127674443193
560.0,0.14023921824510902
564.0,0.19144888911755126
568.0,0.21023820699434714
572.0,0.22382399279981502
576.0,0.23816461859414642
580.0,0.24833788099649673
584.0,0.2527535473402092
588.0,0.2617854595428695
592.0,0.26543935946248326
596.0,0.25611171693229995
600.0,0.2636184309750062
604.0,0.2319669936523418
608.0,0.21773833351662514
612.0,0.2105018694621491
616.0,0.16279214853451693
620.0,0.1584220784412307
624.0,0.12863813761498272
628.0,0.10795953712438362
632.0,0.059286851882030714
636.0,0.025768712409335728
640.0,0.004343170389553104
644.0,0.004526869499988172
648.0,-0.0012749218760152905
652.0,0.005729458562152491
656.0,-0.0031866510712951265
660.0,0.016295141007303133
664.0,-0.005860714807759003
668.0,0.004726577012552598
672.0,-0.0002433491850487674
676.0,0.0087789964643878
680.0,-0.007356798323002377
684.0,-0.03647829742952601
688.0,-0.07622384345197512
692.0,-0.11802678737313602
696.0,-0.16356089965230006
700.0,-0.004550682161324813
704.0,0.10445544474568828
708.0,0.20663306893096287
712.0,0.2984048435191351
716.0,0.4186903232939827
720.0,0.5245512237137481
724.0,0.6375230336801662
728.0,0.7355658114809959
732.0,0.8167447584607186
736.0,0.9721790491634773
740.0,1.0505043028756682
744.0,0.9390851790518238
748.0,0.8404344028559603
752.0,0.7397526380180035
756.0,0.6309104554093158
760.0,0.5403055697371567
764.0,0.4228426741011878
768.0,0.31972491703519856
772.0,0.20942847753185448
776.0,0.09791867060208159
780.0,0.01657352695792065
784.0,-0.0815368043731629
788.0,-0.11601775597116995
792.0,-0.17733234429379346
796.0,-0.24438955423903402
800.0,-0.3243452995208377
804.0,-0.24290959023267497
808.0,-0.17953021225791996
812.0,-0.13502583689145747
816.0,-0.06334038860713187
820.0,-0.051582027941187436
824.0,-0.03917502545326663
828.0,-0.032672128753159314
832.0,-0.044820489366771514
836.0,-0.04267469152697695
840.0,-0.04916707709055277
844.0,-0.028492006941799746
848.0,-0.03754400892228375
852.0,-0.01691178441498923
856.0,-0.037343296675043755
860.0,-0.036913954787913275
864.0,-0.0226039967953032
868.0,-0.03179739808399155
872.0,-0.003873745845895532
876.0,-0.020387819518826105
880.0,-0.016218689529913073
884.0,-0.0015674029301264627
888.0,-0.016505546320625418
892.0,0.015912481513525124
896.0,0.008405654568821152
900.0,-0.0035625688453150913
904.0,0.011985456265513787
908.0,0.04213457979178556
912.0,0.07286679327183793
916.0,0.08151063046925086
920.0,0.09534718043377255
924.0,0.13968283436827658
928.0,0.1725298419526583
932.0,0.17624476271465234
936.0,0.19539138273303522
940.0,0.2031941866767554
944.0,0.24486039124145734
948.0,0.25545870947661764
952.0,0.26477278556501144
956.0,0.28220753566271123
960.0,0.29556155248675897
964.0,0.28252172511962875
968.0,0.31603863020900724
972.0,0.31583923381666784
976.0,0.3130628653713652
980.0,0.30490044417466144
984.0,0.2967675231756895
988.0,0.2951718504511219
992.0,0.29542512149093775
996.0,0.28414834773158115
1000.0,0.2906799963470796
1004.0,0.275547028263111
1008.0,0.28987378703785355
1012.0,0.2503877503894503
1016.0,0.2350405380712143
1020.0,0.2238020580543149
1024.0,0.2216864463112613
1028.0,0.17572071488158655
1032.0,0.13780546207230332
1036.0,0.15516792157688158
1040.0,0.11864070468196368
1044.0,0.10195110257856596
1048.0,0.0689427814630594
1052.0,0.04822014891624929
1056.0,0.015291309595447533
1060.0,0.012573123060231851
1064.0,-0.010101187712345132
1068.0,0.008493661591465695
1072.0,0.011234068658482836
1076.0,0.0023906470966344184
1080.0,-0.0010813485702409263
1084.0,-0.0012235317446920725
1088.0,-0.002226053877706123
1092.0,-0.011179596517034299
1096.0,0.0027600975937179624
1100.0,0.006449648983813054
1104.0,-0.00787434868283761
1108.0,0.004066859884980501
1112.0,0.0020294719535611317
1116.0,-0.004771716796976141
1120.0,-0.015674174909418567
1124.0,0.0030386609651004304
1128.0,0.0020608074759881387
1132.0,4.494270468974236e-06
1136.0,-0.00010268819650429929
1140.0,0.0052033841205436715
1144.0,0.010651689421418154
1148.0,-0.005193461144129154
1152.0,-0.0025697964824115092
1156.0,-0.009152976226818795
1160.0,-0.004520720420645312
1164.0,-0.012904749531194144
1168.0,-0.004811724210697118
1172.0,-0.0040101311921646975
1176.0,0.002422352916288229
1180.0,0.011177374778918107
1184.0,-0.012610418167634887
1188.0,-0.010458552263779603
1192.0,0.0018296799305797498
1196.0,0.0037445877793458072
1200.0,-0.02376028235953395
1204.0,-0.004296027610614333
1208.0,0.005706725364441289
1212.0,-0.007261031717054227
1216.0,0.017404822200353432
1220.0,-0.01979397385163593
1224.0,-0.0014495665888203289
1228.0,-0.0021956569338531778
1232.0,-0.0023610496284290996
1236.0,-0.0020447744530487427
1240.0,0.005246572231014772
1244.0,-0.016880593544457177
1248.0,-0.010840912475441434
1252.0,0.0020041838923537192
1256.0,0.0028452997278602945
1260.0,0.012890418267670624
1264.0,-0.0069378023878350304
1268.0,0.006340982498147022
1272.0,-0.018521884530576006
1276.0,0.018435036664061637
1280.0,-0.0013749391328674602
1284.0,-0.0025039013380583337
1288.0,0.005885291201578825
1292.0,0.0014630766028838802
1296.0,-0.006503073986988283
1300.0,-0.001767520658425277
1304.0,0.009663859387986539
1308.0,-0.0006335727089568042
1312.0,0.012369744657723595
1316.0,0.0062673126908793075
1320.0,-0.03173952023747771
1324.0,0.007691747219847869
1328.0,-0.0012518971637992965
1332.0,-0.0016122085763787247
1336.0,-0.008912213341751352
1340.0,-0.0018196161904160946
1344.0,0.002648809799821619
1348.0,0.0014975676439457628
1352.0,-0.011110239816120837
1356.0,0.005897572115488497
1360.0,-0.006880555391237315
1364.0,-0.01596202154958882
1368.0,0.009821709862961105
1372.0,0.0011911824857754397
1376.0,-0.008098973397877659
1380.0,0.00708303536631305
1384.0,0.005842479427196263
1388.0,-0.0016546723467090632
1392.0,-0.01679722989543369
1396.0,0.00554186653134457
1400.0,0.0019323805092003065
1404.0,-0.0025440269229155656
1408.0,0.013585549288215737
1412.0,0.011103907255619357
1416.0,0.007848569025736116
1420.0,0.004514070596868659
1424.0,-0.021970135465390485
1428.0,-0.0005432108973698636
1432.0,-0.002530207736832309
1436.0,-0.009502407625806465
1440.0,-0.002723592994356108
1444.0,-0.01313735583026421
1448.0,-0.008902197160382543
1452.0,0.0023384300399889647
1456.0,0.008246513637299658
1460.0,-0.013485881313335526
1464.0,-0.016128274312658446
1468.0,0.0010879023677903303
1472.0,0.0052489727175091105
1476.0,-0.00503686373018328
1480.0,0.012466024477620508
1484.0,0.009298964382379468
1488.0,-0.009342730166177557
1492.0,-0.008028344521843174
1496.0,-0.008413843016320323
1500.0,-0.004179564117196369
1504.0,0.010295807571465747
1508.0,0.008425947019378459
1512.0,-0.003062697797828317
1516.0,-0.0011876904080886622
1520.0,-0.00661175365288553
1524.0,-0.008273958703331053
1528.0,-0.0032088047846355267
1532.0,-0.014242334161908867
1536.0,-0.00198451776781963
1540.0,0.0022022883343927827
1544.0,0.02932869577614584
1548.0,0.05664721104851282
1552.0,0.09154016606738835
1556.0,0.10211009603735882
1560.0,0.14045640015486907
1564.0,0.1624398772021888
1568.0,0.21023735478047179
1572.0,0.20544271728732968
1576.0,0.2291293726916204
1580.0,0.2317066836285512
1584.0,0.22447294044091354
1588.0,0.24520860658994625
1592.0,0.23902592300449965
1596.0,0.2502050357825225
1600.0,0.22740978517862032
1604.0,0.22504602889515257
1608.0,0.2124336018652264
1612.0,0.17987381845840905
1616.0,0.1631826086054177
1620.0,0.12405765257440511
1624.0,0.12177098529840612
1628.0,0.08716175388034113
1632.0,0.060346836555845766
1636.0,0.04040911097418726
1640.0,0.006614356422877198
1644.0,-0.005369360008837039
1648.0,-0.016053412384957697
1652.0,-0.020987162258876087
1656.0,0.0010347939787382588
1660.0,-0.0030941823559853367
1664.0,-0.008802402990620035
1668.0,-0.020643859372103123
1672.0,-0.0063262187187457354
1676.0,-0.023854273633150177
1680.0,-0.016167734478480477
1684.0,-0.04936094312602629
1688.0,-0.06901844148420257
1692.0,-0.11009915426445677
1696.0,-0.1452566734995225
1700.0,0.0021134597208916058
1704.0,0.08713046788736353
1708.0,0.18608635745954208
1712.0,0.273018466181293
1716.0,0.38743355651639305
1720.0,0.4918327820632213
1724.0,0.5688126201818348
1728.0,0.6777399728418754
1732.0,0.7649720756630348
1736.0,0.8574960773423318
1740.0,0.9772616190807518
1744.0,0.8914420517516599
1748.0,0.7824099774845106
1752.0,0.6790215934417383
1756.0,0.5986465729623212
1760.0,0.466395305358957
1764.0,0.3791559027356551
1768.0,0.3006162759285867
1772.0,0.184306122049296
1776.0,0.11326652515012361
1780.0,0.0027674524850927465
1784.0,-0.064973999834916
1788.0,-0.1310863441642029
1792.0,-0.18488120398340868
1796.0,-0.22858684601055734
1800.0,-0.276766249402567
1804.0,-0.22247575523121124
1808.0,-0.16198571695610317
1812.0,-0.12039066740566315
1816.0,-0.050961032612622595
1820.0,-0.04467356789426601
1824.0,-0.03933115047026306
1828.0,-0.040389685113768024
1832.0,-0.04557465845372908
1836.0,-0.017637237892348966
1840.0,-0.029985184035235164
1844.0,-0.023404283278921523
1848.0,-0.0376607472510307
1852.0,-0.028265387297113257
1856.0,-0.03705380222612774
1860.0,-0.022975349854436954
1864.0,-0.01738724021524814
1868.0,-0.008017708996064339
1872.0,-0.01925927007944771
1876.0,-0.022807355753359723
1880.0,-0.02908886149041861
1884.0,-0.005458600167795292
1888.0,-0.0014194780777402839
1892.0,-0.008266731948020373
1896.0,0.017605253493879255
1900.0,-0.011304164202962437
1904.0,0.0178656797558569
1908.0,0.043932219623110016
1912.0,0.07125549787917629
1916.0,0.10853432395473483
1920.0,0.12696247180074755
1924.0,0.13151111218182943
1928.0,0.13704026046084694
1932.0,0.1535192463303105
1936.0,0.19358662031272156
1940.0,0.21014669549401896
1944.0,0.21465397289953575
1948.0,0.25524575047546144
1952.0,0.2320699362266161
1956.0,0.25900272406600217
1960.0,0.2821168790697468
1964.0,0.2983058399961427
1968.0,0.27373478973716286
1972.0,0.2871739225529748
1976.0,0.28056653722493613
1980.0,0.29060173300981385
1984.0,0.2775557568155332
1988.0,0.28401793163795735
1992.0,0.2957182166762345
1996.0,0.2905818134912594
2000.0,0.26284218364156686
2004.0,0.26244624264826816
2008.0,0.23315847386734773
2012.0,0.22076606155641426
2016.0,0.21573222740066894
2020.0,0.2086556164393868
2024.0,0.19026165079478422
2028.0,0.17696897852935733
2032.0,0.1555222807365913
2036.0,0.13188480943729383
2040.0,0.10825763400882782
2044.0,0.09034677153514979
2048.0,0.0818484836229951
2052.0,0.03582227621788833
2056.0,0.019024328811623588
2060.0,0.004342694683528519
2064.0,-0.012026508742469749
2068.0,0.010256456186481435
2072.0,0.011500926153599836
2076.0,-0.0016327494340615185
2080.0,-0.01051606060970636
2084.0,-0.006835640588181894
2088.0,-0.00817498393158493
2092.0,-0.008422645152052146
2096.0,0.016097047302295095
2100.0,0.0029656399104697117
2104.0,0.0005588098610707324
2108.0,0.008268297395455404
2112.0,-0.0019004203574942192
2116.0,-0.011909578105481027
2120.0,0.0004974261267578652
2124.0,-0.005701838097407648
2128.0,0.00276312542337188
2132.0,0.006034101113697401
2136.0,-0.0017321573954623209
2140.0,-0.0013336445956597732
2144.0,0.00010538384211254132
2148.0,0.0006289552782102217
2152.0,0.0075314037501172685
2156.0,0.007071038665924143
2160.0,-0.005680806458666749
2164.0,0.0020555939139033485
2168.0,-0.01048503534410001
2172.0,-0.0036512353748920645
2176.0,0.017985092174384338
2180.0,-0.012166382057462281
2184.0,-0.006333789028366074
2188.0,0.011188013820271134
2192.0,0.010478522433493143
2196.0,0.00744652075578717
2200.0,0.003531538051073076
2204.0,0.004967608099304382
2208.0,-0.005826502705666536
2212.0,-0.0019897021191916547
2216.0,0.012467038912449175
2220.0,-0.0034233089507796728
2224.0,0.007153199290655312
2228.0,0.013808280104319256
2232.0,0.0061203328678036
2236.0,0.01287326211525828
2240.0,-0.013876159980200089
2244.0,0.01721185583368726
2248.0,0.0073332097117884245
2252.0,0.004863465269051562
2256.0,-0.011649120187568602
2260.0,-0.011502758138142976
2264.0,-0.012689035237253286
2268.0,-0.003487270555700786
2272.0,-0.0042926415627896185
2276.0,-0.003428247288861362
2280.0,-0.00595876854914993
2284.0,-0.0033447056825405413
2288.0,-0.009292505392735038
2292.0,-0.0004332587882917336
2296.0,0.006294777086389892
2300.0,0.008171451528238316
2304.0,-0.010184684720523536
2308.0,-0.002636731229190596
2312.0,0.00504428572015221
2316.0,0.0073751341419323845
2320.0,-0.011688529989610213
2324.0,-0.01245782861094738
2328.0,0.016181673122548052
2332.0,0.000930192048064315
2336.0,0.0005117105126313745
2340.0,-0.0014557252577386407
2344.0,-0.014970314809554621
2348.0,0.0026499952243170077
2352.0,-0.00947399712237127
2356.0,-0.0006576949977515219
2360.0,-0.0007621762541013235
2364.0,-0.002680082555783426
2368.0,-0.006051559782637172
2372.0,0.010172260214866473
2376.0,-0.0019640120324167613
2380.0,-0.006234217539069034
2384.0,0.027349899200501696
2388.0,-0.0007139702842559336
2392.0,-0.00286694370072073
2396.0,-0.004535823330530626
2400.0,-0.003633712093395998
2404.0,-0.004795624843277783
2408.0,-0.001668292794746732
2412.0,-0.009602715545664149
2416.0,0.0062820450275321875
2420.0,0.00464477306867643
2424.0,0.00969344402248139
2428.0,-0.008108464411719998
2432.0,-0.0031505466803342375
2436.0,0.011035578480492626
2440.0,-0.007054112371420116
2444.0,-0.015931338982851696
2448.0,-0.0031367715983129088
2452.0,0.0016654719225857421
2456.0,-0.01992154657323144
2460.0,-0.001391848078147859
2464.0,-0.002605106603201098
2468.0,0.005769384532204175
2472.0,-0.007663671323655225
2476.0,0.008144013099007284
2480.0,0.00026880497621120143
2484.0,0.0006922097540078611
2488.0,0.00754482821250289
2492.0,-0.003200447337364613
2496.0,0.012310708998873326
2500.0,0.008445212799795779
2504.0,-0.013624164594934558
2508.0,0.01434162948181277
2512.0,0.007519952852803545
2516.0,-0.0048612932632352435
2520.0,0.0037726943538387344
2524.0,0.008842232501231163
2528.0,0.010409508216066947
2532.0,0.018343367968704942
2536.0,-0.0032805075092714876
2540.0,-0.011655229732693503
2544.0,0.04056649400641946
2548.0,0.06075197154488755
2552.0,0.09155388448060353
2556.0,0.11224238025930089
2560.0,0.15762096691824484
2564.0,0.1660030702861002
2568.0,0.18384439917843157
2572.0,0.2058588873373948
2576.0,0.22102184115997728
2580.0,0.23628842554504656
2584.0,0.25206925238063516
2588.0,0.24305297552724858
2592.0,0.24616047932335372
2596.0,0.23605201621152952
2600.0,0.2321833723368002
2604.0,0.22681450095195715
2608.0,0.20764078811197978
2612.0,0.2040371960692488
2616.0,0.17805761543314483
2620.0,0.14558589157606175
2624.0,0.1224786891023817
2628.0,0.07883599610546736
2632.0,0.04868822284087444
2636.0,0.047444407321857424
2640.0,-0.009403205894259834
2644.0,-0.0093535688767203
2648.0,-0.0026332455589854467
2652.0,-0.0009048546162919905
2656.0,-0.01580479367004215
2660.0,-0.008310854148770763
2664.0,-0.0170436366927744
2668.0,0.012758887039181413
2672.0,0.007410381267570617
2676.0,-0.000981022515582817
2680.0,-0.01214666088346217
2684.0,-0.03892897008395051
2688.0,-0.07333931616792164
2692.0,-0.12084285735129459
2696.0,-0.16226568014731588
2700.0,0.0022072128971127483
2704.0,0.09420187573628351
2708.0,0.21642629300538196
2712.0,0.28755373333034073
2716.0,0.39473207258214965
2720.0,0.4873542975247546
2724.0,0.5778213221457885
2728.0,0.6869192062248121
2732.0,0.7881754880061851
2736.0,0.8741361753349802
2740.0,0.9910444392070173
2744.0,0.8725485925631794
2748.0,0.7739874359841713
2752.0,0.6997914163448802
2756.0,0.5961692367037177
2760.0,0.4736170990139924
2764.0,0.3949727649117195
2768.0,0.30513220135757263
2772.0,0.19621774671199665
2776.0,0.10261363004217884
2780.0,-0.0013946187412301446
2784.0,-0.054189832761875605
2788.0,-0.12945409756373483
2792.0,-0.16248534563353673
2796.0,-0.2253363037228235
2800.0,-0.2812634004405403
2804.0,-0.25745358744607916
2808.0,-0.1905069868345807
2812.0,-0.11507885169382594
2816.0,-0.06686284734970654
2820.0,-0.0454701401630849
2824.0,-0.02849659227023444
2828.0,-0.0465495635511272
2832.0,-0.03926528878119043
2836.0,-0.03801110290545989
2840.0,-0.05180753641424407
2844.0,-0.03442364071165437
2848.0,-0.03460183839791273
2852.0,-0.027698418779255964
2856.0,-0.024551055468011722
2860.0,-0.01063123890734599
2864.0,-0.012109288051218104
2868.0,-0.01715548070132178
2872.0,-0.010383460558135278
2876.0,-0.004021256294812059
2880.0,-0.010948073018346521
2884.0,-0.01375295975716993
2888.0,-0.010637173634657465
2892.0,0.006293559697461771
2896.0,0.00560600579006998
2900.0,-0.005553113162526186
2904.0,0.016579250323866618
2908.0,0.025799169240393362
2912.0,0.07043409553952361
2916.0,0.06837727322175532
2920.0,0.09629993999239952
2924.0,0.12272484571950878
2928.0,0.15308275103102348
2932.0,0.1677775343112612
2936.0,0.20269868584014608
2940.0,0.20054906917202783
2944.0,0.22469882060431173
2948.0,0.23047508312428383
2952.0,0.24242853339509007
2956.0,0.2516644428332087
2960.0,0.2713007890375854
2964.0,0.2763945558099827
2968.0,0.2963769980477519
2972.0,0.3060336082043936
2976.0,0.2989166864595429
2980.0,0.27905202880985036
2984.0,0.2978411828973011
2988.0,0.29081984450523146
2992.0,0.271759501243509
2996.0,0.2715395100432226
3000.0,0.26062917186678747
3004.0,0.2627005392523363
3008.0,0.2612817973013463
3012.0,0.23923919487478465
3016.0,0.24294242454745296
3020.0,0.22627962687157785
3024.0,0.17982970809319654
3028.0,0.16471016869148486
3032.0,0.15680473876867213
3036.0,0.1359224204720303
3040.0,0.11384300479605898
3044.0,0.08106788748260803
3048.0,0.06444344079514346
3052.0,0.05153371455609479
3056.0,0.01816854890994577
3060.0,0.0020466226461096216
3064.0,-0.00041578373683207834
3068.0,-0.017962062646054863
3072.0,-0.013903234006269931
3076.0,-0.032910612353480174
3080.0,-0.01050026364810634
3084.0,-0.0037772723314928214
3088.0,-0.007641433407331901
3092.0,0.013311970200083774
3096.0,-0.022182243076449625
3100.0,0.01093764493321651
3104.0,-0.014686748579346789
3108.0,0.0022717491790060114
3112.0,-0.003784281266541955
3116.0,-0.020327741222097254
3120.0,-0.016469448276062358
3124.0,-0.008949408934000477
3128.0,0.0017214950348693062
3132.0,0.014154076152360416
3136.0,0.007948145804345644
3140.0,-0.0029792231861216273
3144.0,0.010919095789196474
3148.0,0.0029015225598437028
3152.0,0.007974620612917777
3156.0,0.010982837525965633
3160.0,0.0006151834936581309
3164.0,-0.005361549317369047
3168.0,-0.009710707559539592
3172.0,-0.004751916957776424
3176.0,-0.0028373606493018646
3180.0,-0.02362446162088028
3184.0,0.00584584238492765
3188.0,0.016479037067268037
3192.0,0.008366236216586482
3196.0,-0.010314413329022297
3200.0,-0.013016489128513229
3204.0,-0.0079530716156429
3208.0,0.009968094111801017
3212.0,0.003846472897460759
3216.0,-0.002634855673370959
3220.0,0.009441371852785648
3224.0,0.004045623658997669
3228.0,-0.013536703398431486
3232.0,0.0037689617550648487
3236.0,0.014882088216338293
3240.0,-0.014391310990221043
3244.0,-0.01397343270754373
3248.0,-0.003955072437684276
3252.0,-0.0196389506282763
3256.0,-0.0011414969989371683
3260.0,-0.0013170926210622153
3264.0,6.0510663927856054e-05
3268.0,-0.002734055988237485
3272.0,0.008321765991268278
3276.0,0.0008829015740107327
3280.0,0.0034743215019499077
3284.0,-0.0052525441251784315
3288.0,-0.00834883782389361
3292.0,0.006833530203689688
3296.0,0.004388314213381787
3300.0,0.022946794001518233
3304.0,-0.012899673942073855
3308.0,-0.008609138421669622
3312.0,0.0013626976477970388
3316.0,0.002120560328739026
3320.0,0.006665283480243426
3324.0,0.01980869356126207
3328.0,-0.00948221128099815
3332.0,0.0036216810552357386
3336.0,0.00418424430692175
3340.0,0.002478584030503626
3344.0,0.0023304483628175244
3348.0,0.00263242402754773
3352.0,0.005753667840615405
3356.0,0.0019236715602518148
3360.0,-0.016676288488447814
3364.0,0.0010256633389042337
3368.0,0.009539902750551643
3372.0,-0.0059146809193052294
3376.0,-0.001934884497434222
3380.0,0.0011792252363459247
3384.0,0.01148691306112176
3388.0,-0.01492949281533523
3392.0,0.0006380761652203982
3396.0,0.003235893051021726
3400.0,-0.017069807468919965
3404.0,-0.0058258007313114245
3408.0,0.00716252408030828
3412.0,0.0065336563164847886
3416.0,0.01565734389595768
3420.0,0.013193860466371485
3424.0,-0.0022699100205766094
3428.0,0.0013224215034717606
3432.0,-0.0035444876720961732
3436.0,0.0024179241488956793
3440.0,-0.00423910551019082
3444.0,-0.00015756913774144052
3448.0,-0.01222180312236644
3452.0,-0.008437124869698602
3456.0,0.009574473008306248
3460.0,-0.004437457437164913
3464.0,-0.031219850373326474
3468.0,-0.011059776920761636
3472.0,0.007159679807044656
3476.0,0.002491414499506334
3480.0,0.003032518600998646
3484.0,-0.0059523765505565705
3488.0,0.0071553818265840535
3492.0,-0.009643393055073664
3496.0,-0.006134329025315208
3500.0,-0.007286519418528537
3504.0,-0.008084920942656861
3508.0,0.02187946103060387
3512.0,0.0037839676601782
3516.0,0.00531956358956576
3520.0,0.01877412715476623
3524.0,-0.002073620876425433
3528.0,-0.011952364465679053
3532.0,0.0007632580694688209
3536.0,0.008871249381493423
3540.0,0.029065607679727365
3544.0,0.04060492310808277
3548.0,0.049908976250394914
3552.0,0.08849605627212433
3556.0,0.1273986817063064
3560.0,0.1614482095875852
3564.0,0.1631795947209923
3568.0,0.16359454121980266
3572.0,0.2067162863091289
3576.0,0.2341939401850028
3580.0,0.2402962339593644
3584.0,0.24288065786065147
3588.0,0.24695843032141107
3592.0,0.265397107571106
3596.0,0.22593702872639948
3600.0,0.22212160425081667
3604.0,0.2109971284866487
3608.0,0.21640783318595236
3612.0,0.19653287893887272
3616.0,0.16252618226066967
3620.0,0.13000517206755766
3624.0,0.11546051830877133
3628.0,0.108130230226549
3632.0,0.05550431398362401
3636.0,0.03127540828530051
3640.0,-0.0016077822687924834
3644.0,-0.021159365829772354
3648.0,0.009045746277411571
3652.0,0.009170278010749731
3656.0,-0.026173783979024385
3660.0,-0.0008513950978104984
3664.0,-0.0036883381949485332
3668.0,0.008236910341308553
3672.0,-0.014674891745526702
3676.0,0.009134475034241842
3680.0,0.005647169130498591
3684.0,-0.032294701200680606
3688.0,-0.08145720083011976
3692.0,-0.11372149190248147
3696.0,-0.1579564036646043
3700.0,0.007512344353249637
3704.0,0.0942308229299821
3708.0,0.19583422573911094
3712.0,0.28745711581452155
3716.0,0.4089121284928229
3720.0,0.49450636653256524
3724.0,0.6061950816802624
3728.0,0.6949400545297745
3732.0,0.8016443285461673
3736.0,0.8866689065166323
3740.0,1.0066394295799215
3744.0,0.8988160136141778
3748.0,0.7736456026029186
3752.0,0.7152955634118306
3756.0,0.5851778008541315
3760.0,0.4892213260798822
3764.0,0.38531923441346155
3768.0,0.29219798328951285
3772.0,0.21006479248384485
3776.0,0.11555038403582335
3780.0,0.001486482556704789
3784.0,-0.06654318806243892
3788.0,-0.11348455262773675
3792.0,-0.19294210364737596
3796.0,-0.24351288503519455
3800.0,-0.30812616490331934
3804.0,-0.2516345503976683
3808.0,-0.17770507176978514
3812.0,-0.11597252609590766
3816.0,-0.055200169628709085
3820.0,-0.07171932726650997
3824.0,-0.05706552661841305
3828.0,-0.06498418403135123
3832.0,-0.036195697173182946
3836.0,-0.03584349940834426
3840.0,-0.03018975525879286
3844.0,-0.041138070099130106
3848.0,-0.031619910523603655
3852.0,-0.026457876523151177
3856.0,-0.029572156765547652
3860.0,-0.02938069314877292
3864.0,-0.03421966966930025
3868.0,-0.02201575130056122
3872.0,-0.027718793180171373
3876.0,-0.019628108750089558
3880.0,-0.014715146142406241
3884.0,-0.001752884477190058
3888.0,0.0006956729860376643
3892.0,0.0032386306923361356
3896.0,-0.020884191190337666
3900.0,-0.006468057935735718
3904.0,0.0040508678261813695
3908.0,0.05305714720535292
3912.0,0.08326258277386939
3916.0,0.09952107543268227
3920.0,0.10617092048391262
3924.0,0.13043899443766588
3928.0,0.14427803475540474
3932.0,0.16868901187560278
3936.0,0.1935629426128244
3940.0,0.19539592157812458
3944.0,0.22241351104242274
3948.0,0.24188387794070704
3952.0,0.24613794950484358
3956.0,0.2742061410173079
3960.0,0.27132879030176116
3964.0,0.2847454017854236
3968.0,0.294290764195554
3972.0,0.3112048065879986
3976.0,0.3105803218755563
3980.0,0.290684481741021
3984.0,0.2917578982297887
3988.0,0.29996136898591325
3992.0,0.31148970297791234
3996.0,0.28449720831137965
4000.0,0.26587262470232864
4004.0,0.27727631911044254
4008.0,0.24680565455708128
4012.0,0.2442480102331146
4016.0,0.2157035353409437
4020.0,0.20026553810572112
4024.0,0.1949150794331831
4028.0,0.19485977649765385
4032.0,0.13062709530509428
4036.0,0.13066762599999707
4040.0,0.12106626853239706
4044.0,0.08858324936831379
4048.0,0.07970908663360314
4052.0,0.05695272515375017
4056.0,0.023437048304420064
4060.0,0.007806555713636364
4064.0,0.0031394495998229937
4068.0,-0.006313663167355782
4072.0,-0.007280557864163531
4076.0,0.01373516284242687
4080.0,0.0034784671178500304
4084.0,0.008506263286657887
4088.0,-0.005860154656723299
4092.0,0.0021201400152864557
4096.0,0.019796552267971147
4100.0,0.016667303778359996
4104.0,-0.00012996572460831764
4108.0,-0.0019208768405752528
4112.0,0.020046033978659755
4116.0,3.458887372585772e-06
4120.0,-0.02395434913663181
4124.0,0.00474029644166381
4128.0,-0.002799156147513172
4132.0,0.010446765994353242
4136.0,0.00048004046428047983
4140.0,-0.004811732293382663
4144.0,0.014641095124914405
4148.0,0.004319567683812405
4152.0,-0.012125728507120362
4156.0,-0.012968083018479624
4160.0,-0.013368830278682138
4164.0,-0.007228514536183477
4168.0,-0.0001018089155292135
4172.0,0.007208089899298833
4176.0,-0.009017166808377912
4180.0,0.006008500484180524
4184.0,-0.01386125477753972
4188.0,0.0046825296201271375
4192.0,-0.006889359432228895
4196.0,0.006411418203056354
4200.0,0.005667171861601784
4204.0,0.013739555882350846
4208.0,-0.014829419519119902
4212.0,0.013781690986197035
4216.0,0.007423491890529031
4220.0,-0.013216773794755535
4224.0,0.012024612790470129
4228.0,0.004332380314136261
4232.0,-0.005332813608146801
4236.0,0.003789800473971201
4240.0,-0.01537486065830202
4244.0,0.012589031156741686
4248.0,-0.002821787234151195
4252.0,-0.022412351491896278
4256.0,0.00386493345943305
4260.0,-0.00494032866905823
4264.0,0.00955986066084007
4268.0,-0.010997443406411718
4272.0,0.012697572782120456
4276.0,-0.012988881872167488
4280.0,-0.011016646212134695
4284.0,0.004460111475517115
4288.0,-0.014531038675674068
4292.0,0.016931307247797317
4296.0,-0.003597935372958331
4300.0,-0.01227952279440266
4304.0,-0.004737622180112011
4308.0,-0.0011794605237372276
4312.0,-0.0036652050419046824
4316.0,-0.007299497685904199
4320.0,0.007360021388892762
4324.0,-0.0022050043717111033
4328.0,-7.624758963207333e-05
4332.0,-0.00969462576419415
4336.0,0.012235079182750155
4340.0,-0.015534318734674233
4344.0,-0.002396575337043662
4348.0,-0.0013025823144627077
4352.0,0.010705297478636511
4356.0,0.013481431540354092
4360.0,0.0023106925834568658
4364.0,-0.0011787453567255518
4368.0,0.009026332543216126
4372.0,0.004981403801026934
4376.0,0.006001933843719237
4380.0,-0.0075616631535587115
4384.0,-0.00023070118889599307
4388.0,0.00098030416348454
4392.0,-0.007191970259252979
4396.0,-0.00038783006011630053
4400.0,0.01804288712711834
4404.0,-0.01631090263355585
4408.0,0.018580759545660862
4412.0,-0.004824713313951854
4416.0,0.0044626057981806445
4420.0,-0.012038276550351367
4424.0,0.004851076760750784
4428.0,0.013590607021636761
4432.0,0.009508465827733173
4436.0,0.004525248399619491
4440.0,0.004300637005983115
4444.0,-0.01321808776853511
4448.0,0.0031224033288404034
4452.0,0.00021785325225127656
4456.0,-0.00956113517045581
4460.0,-0.0026180474270828336
4464.0,0.007140232334610203
4468.0,-0.003270728914874968
4472.0,0.010556695281562905
4476.0,-0.006617476720155619
4480.0,0.0007719348669600379
4484.0,-0.0004961087909925965
4488.0,-0.015264703822319458
4492.0,0.0036470325466319317
4496.0,-0.00011542753577490376
4500.0,0.014208929414794291
4504.0,0.001973219380519442
4508.0,0.010947934135086579
4512.0,-0.0028887934893853245
4516.0,0.0009455348431382218
4520.0,0.005980308101525271
4524.0,0.008211410334718925
4528.0,0.004097267097241739
4532.0,0.011043806879345384
4536.0,0.01143230271928366
4540.0,0.0069301396297460575
4544.0,0.0265542558803045
4548.0,0.0640896176426305
4552.0,0.11152524814793824
4556.0,0.14220753010216067
4560.0,0.15776634761113237
4564.0,0.16994869563599257
4568.0,0.2076258310146761
4572.0,0.20383689514748687
4576.0,0.21651821608652552
4580.0,0.23678344300907062
4584.0,0.2608847632785421
4588.0,0.239092431609728
4592.0,0.2623721365008658
4596.0,0.24004633467724779
4600.0,0.23032028259929754
4604.0,0.2307589376694327
4608.0,0.20446092698863508
4612.0,0.17320419273903964
4616.0,0.16842939072313615
4620.0,0.15600703775320907
4624.0,0.11752293139803136
4628.0,0.09643285071551606
4632.0,0.0630656977331723
4636.0,0.029545538036684436
4640.0,-0.001601728613317763
4644.0,0.011644161563248335
4648.0,0.010344025288472622
4652.0,0.005554163267517556
4656.0,-0.0035932480604299612
4660.0,0.007443725359389104
4664.0,-0.006296809858369781
4668.0,0.0022924765464248853
4672.0,0.00020074131237033565
4676.0,0.011188462347906188
4680.0,0.0007798986794371326
4684.0,-0.03418191173985187
4688.0,-0.09233965439207104
4692.0,-0.10284570549787257
4696.0,-0.16312519087169985
4700.0,0.008386771781355568
4704.0,0.11377440027826002
4708.0,0.20736159476013313
4712.0,0.3125082818931692
4716.0,0.40662080315236565
4720.0,0.4921929892079402
4724.0,0.6043498343957574
4728.0,0.7040730004353435
4732.0,0.8009077480439132
4736.0,0.9313986659337109
4740.0,1.0268253164142975
4744.0,0.9149078678255689
4748.0,0.8038216770863579
4752.0,0.6942905735327339
4756.0,0.6033383176875796
4760.0,0.4994789133045015
4764.0,0.40711900032596604
4768.0,0.3131324203188185
4772.0,0.2089197323051758
4776.0,0.10074319143596701
4780.0,-0.023665848141878363
4784.0,-0.06235677789654241
4788.0,-0.11527746522328955
4792.0,-0.1822656681504783
4796.0,-0.24836425336756524
4800.0,-0.2943392962389168
4804.0,-0.23599391740595047
4808.0,-0.181262897906849
4812.0,-0.12447603552055951
4816.0,-0.05750261799257806
4820.0,-0.037555109694246774
4824.0,-0.05134901639903021
4828.0,-0.04004545346723728
4832.0,-0.058031614391375615
4836.0,-0.04120888831248734
4840.0,-0.06119369682038253
4844.0,-0.05086213980885934
4848.0,-0.02115308993505869
4852.0,-0.04107109409707543
4856.0,-0.03733567254203251
4860.0,-0.025603376434489056
4864.0,-0.010881195871589274
4868.0,-0.03863252851510447
4872.0,-0.02829143246504826
4876.0,0.00129776216246872
4880.0,-0.009666814762430437
4884.0,-0.005098675713384001
4888.0,-0.005236559004841268
4892.0,0.004390459306964814
4896.0,-0.0007667851183069093
4900.0,0.011853222190504494
4904.0,0.0450217106068133
4908.0,0.03782357318691926
4912.0,0.06423777203101778
4916.0,0.09447991062134625
4920.0,0.10840550695693923
4924.0,0.14663350103551634
4928.0,0.14009579139992318
4932.0,0.17161528410445395
4936.0,0.18646364345971972
4940.0,0.2071594266432426
4944.0,0.230285392736599
4948.0,0.23669925795725702
4952.0,0.24846923070642468
4956.0,0.2576320733468549
4960.0,0.28281390205605345
4964.0,0.27820254018605606
4968.0,0.2849628494049923
4972.0,0.30785695417641656
4976.0,0.29602883156703813
4980.0,0.30761464358515517
4984.0,0.29428636258153995
4988.0,0.3041844056588632
4992.0,0.2975126115160915
4996.0,0.29180793527465637
5000.0,0.27917994681515673
5004.0,0.2646248031814152
5008.0,0.26744849991632835
5012.0,0.23509570008347314
5016.0,0.22637846243411117
5020.0,0.21621072177116996
5024.0,0.19619502224236204
5028.0,0.1941864291749533
5032.0,0.14053881659116255
5036.0,0.15785338782458205
5040.0,0.11390159254888438
5044.0,0.11361304588909461
5048.0,0.0580864982650446
5052.0,0.06492170682928725
5056.0,0.013237924364840021
5060.0,-0.0066145303612893756
5064.0,0.01317429195186691
5068.0,-0.009996731646101166
5072.0,0.0036949677853870613
5076.0,0.0020908108856143004
5080.0,-0.01273513730814588
5084.0,-0.0015087855735967913
5088.0,0.02399884629316855
5092.0,-0.005622748088662392
5096.0,-0.013796423202237802
5100.0,-0.010105841094317548
5104.0,0.007366423918353666
5108.0,-0.00207436056700013
5112.0,-0.005744980456001998
5116.0,0.001403439631873756
5120.0,0.001385789548916679
5124.0,0.00731181921862061
5128.0,-0.006902090279253399
5132.0,-0.001712406512370693
5136.0,-0.0015030100020536584
5140.0,0.007543482810604771
5144.0,-0.0071441378720926915
5148.0,-0.006484553783010711
5152.0,0.01118739888795074
5156.0,-0.011331537541727001
5160.0,0.0018827083750061935
5164.0,0.0019088172423105407
5168.0,-0.009054718259612264
5172.0,-0.006443807556984101
5176.0,-0.0017936915292571952
5180.0,-0.010209061374044735
5184.0,-0.011316055966530167
5188.0,-0.006213587177610921
5192.0,0.019590462630977665
5196.0,0.011437623630857327
5200.0,0.005912967324350238
5204.0,0.003923622860504349
5208.0,-0.024658622497658444
5212.0,0.008827334076848648
5216.0,0.0025761563401228028
5220.0,0.012122135788249189
5224.0,0.00461990916246316
5228.0,-0.01346041665566249
5232.0,-0.0046347210823907085
5236.0,-0.013588374768240876
5240.0,-0.002165286943453334
5244.0,0.010236168969236516
5248.0,-0.012785468678565746
5252.0,0.00878234215349805
5256.0,0.0059320280506763925
5260.0,0.0032736292553753117
5264.0,-0.000579481529409812
5268.0,-0.0023630487762304198
5272.0,-0.003399337741447073
5276.0,-0.00629987765807933
5280.0,-0.005416309503713621
5284.0,-0.005006871622504285
5288.0,0.004739819815430121
5292.0,-0.004716025371873888
5296.0,0.004706391429420267
5300.0,-0.006836126225528315
5304.0,0.013223320603838115
5308.0,-0.0060414285509008524
5312.0,0.0004718770502182816
5316.0,-0.017252703863323286
5320.0,-0.01389594233569666
5324.0,0.000650849531206401
5328.0,-0.011985258046924198
5332.0,0.015036007503053153
5336.0,0.0040677944667331725
5340.0,0.008589508959757613
5344.0,-0.00411104032174195
5348.0,-0.010368345842464969
5352.0,0.003920686359783679
5356.0,-0.004764253171851607
5360.0,0.0035541125682665067
5364.0,-0.004564311897978872
5368.0,-0.0026295410855081
5372.0,-0.007106858528738491
5376.0,-0.011552281305716306
5380.0,-0.005842742412149255
5384.0,-0.001021603667446146
5388.0,0.0014889155157176473
5392.0,-0.015259463602059575
5396.0,0.009572301225388536
5400.0,-0.011066398310499949
5404.0,0.000377700079935107
5408.0,-0.020493144298102256
5412.0,-0.0014304794320098247
5416.0,0.0025059451127522874
5420.0,-0.00603331945926942
5424.0,-0.013659558166522503
5428.0,-0.026073281008798216
5432.0,0.0026058489188609878
5436.0,-0.01876753010502307
5440.0,0.006665949225640646
5444.0,0.0006307870547480618
5448.0,-0.003466068085375866
5452.0,-0.018841620305992405
5456.0,0.007546754559637809
5460.0,0.017456611296726425
5464.0,-0.008684000959476967
5468.0,0.004231926277425553
5472.0,-0.01281353067723219
5476.0,-6.276766275417976e-05
5480.0,0.0030775713764778466
5484.0,-0.011924336660015187
5488.0,-0.004214312684031494
5492.0,-0.0030275728948906716
5496.0,0.0004524362559395631
5500.0,-0.004893312067671719
5504.0,-0.0038981135994565924
5508.0,0.008559431811809811
5512.0,-0.001301573986151319
5516.0,-0.002258455342386513
5520.0,0.012000078419781336
5524.0,-0.005790225889951531
5528.0,-0.008097796574633652
5532.0,0.000531617493859937
5536.0,0.001099954385924131
5540.0,-0.012154145353989634
5544.0,0.03506562174473143
5548.0,0.06732883107878795
5552.0,0.09305119516894392
5556.0,0.11859421876102329
5560.0,0.14785890824733983
5564.0,0.17809635571375035
5568.0,0.166959950739474
5572.0,0.19998871437668758
5576.0,0.20984572563110276
5580.0,0.23929117595076915
5584.0,0.24488653557195766
5588.0,0.2437021832691835
5592.0,0.240528763928467
5596.0,0.22830097950986136
5600.0,0.23682174916216747
5604.0,0.23026869942205144
5608.0,0.22475243844713327
5612.0,0.1926556828463875
5616.0,0.17459722454521692
5620.0,0.14448199032713843
5624.0,0.12703570528072794
5628.0,0.1017392764346563
5632.0,0.06405871370745682
5636.0,0.040903039203904853
5640.0,0.005896864498530886
5644.0,-0.012806880663411813
5648.0,-0.007431833637353629
5652.0,-0.007244135187555602
5656.0,0.002974730936498594
5660.0,-0.016532252787682587
5664.0,-0.009837313537318107
5668.0,0.014475539867533388
5672.0,-0.01101094451318804
5676.0,0.020116129110065908
5680.0,0.0018436456442458805
5684.0,-0.041473916032468625
5688.0,-0.09293042614284254
5692.0,-0.1245282496414808
5696.0,-0.1549010267708394
5700.0,0.005535265403403123
5704.0,0.09558350040026695
5708.0,0.19779389499007638
5712.0,0.3115743362427471
5716.0,0.39104706737939354
5720.0,0.4900374913853259
5724.0,0.5900711340580839
5728.0,0.6894956265200515
5732.0,0.784167104559527
5736.0,0.9131475750454737
5740.0,0.9876881856761136
5744.0,0.887663290507336
5748.0,0.7836294431489302
5752.0,0.6992200344919803
5756.0,0.5837165409155876
5760.0,0.4923615333101434
5764.0,0.39474009553458145
5768.0,0.2865998528176788
5772.0,0.20513475792085528
5776.0,0.1052366796830116
5780.0,-0.0022574156696663927
5784.0,-0.05680266939525443
5788.0,-0.10090226257442879
5792.0,-0.1829848933407459
5796.0,-0.23779497945207861
5800.0,-0.28556262044448555
5804.0,-0.2437122534016081
5808.0,-0.1743186411639287
5812.0,-0.12272166357364751
5816.0,-0.06469764798146795
5820.0,-0.06459807795605971
5824.0,-0.03851161900720999
5828.0,-0.042585773853599115
5832.0,-0.0436350281693385
5836.0,-0.04538551953598717
5840.0,-0.05943100906589927
5844.0,-0.016758987054143682
5848.0,-0.044625545463778296
5852.0,-0.03515022360224585
5856.0,-0.026450018643595925
5860.0,-0.02880699620699883
5864.0,-0.02030047030386849
5868.0,-0.008847199593365149
5872.0,-0.017281203762805633
5876.0,-0.021245072308976345
5880.0,0.0016189584967804971
5884.0,-0.006951104127478986
5888.0,-0.013083222016216752
5892.0,0.0064749130506865284
5896.0,0.00291960250003996
5900.0,-0.0050374752535518996
5904.0,0.01460495442529009
5908.0,0.059993222097979484
5912.0,0.07543517296017231
5916.0,0.08406906438330607
5920.0,0.10631531794509118
5924.0,0.12211098081919106
5928.0,0.15350645833018553
5932.0,0.18451298261537138
5936.0,0.19212871590694494
5940.0,0.20627860740803342
5944.0,0.2067730621583606
5948.0,0.2300927526468951
5952.0,0.2416145160269505
5956.0,0.26140534854850883
5960.0,0.2672258614800024
5964.0,0.25522502752829945
5968.0,0.3042258608308052
5972.0,0.3097636510967074
5976.0,0.29297591629532205
5980.0,0.30424140576904646
5984.0,0.2900189644787778
5988.0,0.29321319488454683
5992.0,0.3094757855103495
5996.0,0.2844789071390413
6000.0,0.27319592663338027
6004.0,0.2592800359810524
6008.0,0.24692099833122882
6012.0,0.2509775341540517
6016.0,0.2224338671790238
6020.0,0.18254487173360556
6024.0,0.19073155378362358
6028.0,0.16731783132038627
6032.0,0.15555199284867494
6036.0,0.14557954103819953
6040.0,0.11178064747452005
6044.0,0.08371445948728069
6048.0,0.10011350111611665
6052.0,0.03962380680031217
6056.0,0.0081668858363294
6060.0,-0.005994788403300559
6064.0,-0.013825209133424325
6068.0,-0.004561158131389475
6072.0,0.017924506134322345
6076.0,0.015246017370825352
6080.0,0.008377783155104613
6084.0,-0.01570850497213176
6088.0,-0.013410214521031702
6092.0,0.0038837703328338945
6096.0,-0.0001367074342973748
6100.0,0.004516104332639484
6104.0,0.01162255897936495
6108.0,-0.017647735229671786
6112.0,0.008058748268784659
6116.0,-0.002441883194055288
6120.0,-0.006039750517032418
6124.0,0.004869230439134313
6128.0,0.0025119477553035736
6132.0,-0.01227905307752654
6136.0,-0.01562555870754189
6140.0,-0.019906526423637456
6144.0,-0.006283694076720662
6148.0,0.0073053326822872825
6152.0,0.020051718085122815
6156.0,-0.008088447393613862
6160.0,-0.010629383966316528
6164.0,-0.004379180314854541
6168.0,-0.0046633573812139215
6172.0,0.013565192047194427
6176.0,0.03313853886286039
6180.0,0.00447833577474965
6184.0,0.004143501055929839
6188.0,-0.01576678749025742
6192.0,-0.0157992460012964
6196.0,-0.010418022361362146
6200.0,-0.012507393248063716
6204.0,0.01230691183632742
6208.0,0.0030959404971392258
6212.0,0.00022389789997917764
6216.0,-0.0022550262521997696
6220.0,0.000794300057231564
6224.0,-0.009351230199583662
6228.0,-0.010643814515507125
6232.0,-0.002589256637005307
6236.0,-0.005018877300759938
6240.0,-0.004047334484738444
6244.0,0.022039497659931576
6248.0,-0.02185654858792896
6252.0,0.002201481730404781
6256.0,6.668490692775325e-05
6260.0,0.0075696544735623095
6264.0,0.00035714775932369885
6268.0,0.010505291603376366
6272.0,0.0007721946257380622
6276.0,-0.012818562820917232
6280.0,-0.0025982351698648517
6284.0,-0.007527652405623169
6288.0,0.006085326289581334
6292.0,0.005232695603385944
6296.0,-0.0006197729881787014
6300.0,0.0054213742856558875
6304.0,0.002431160380741183
6308.0,0.005558499578215903
6312.0,-0.008359121519155285
6316.0,0.007669051281592683
6320.0,-0.003178768802139312
6324.0,-0.002258583358021649
6328.0,0.024565829955563185
6332.0,-0.001196298908732079
6336.0,-0.0005786735288344662
6340.0,0.012359204614762536
6344.0,0.008158716067544198
6348.0,-0.00442415398035386
6352.0,-0.0021833512595834546
6356.0,0.017879638307328593
6360.0,0.007985112839141311
6364.0,-0.010678499791220056
6368.0,0.010949364931730585
6372.0,-0.01628812223960693
6376.0,-0.008295865909028637
6380.0,-0.0056575474681239855
6384.0,0.011874770738109577
6388.0,0.006665224798885332
6392.0,-0.0091672288854886
6396.0,-0.014397957593864927
6400.0,0.003062998778064541
6404.0,-0.0026608981359501267
6408.0,0.016136750159224535
6412.0,0.003925503042277653
6416.0,-0.007921224706382526
6420.0,0.02732719585379332
6424.0,-0.0022430455007023168
6428.0,0.0066928116651361795
6432.0,0.013373877496252276
6436.0,-0.0004843449893631815
6440.0,-0.014507733255953274
6444.0,0.0044213995060932215
6448.0,0.008327115329070964
6452.0,-0.016143167408640947
6456.0,0.008909467048722272
6460.0,0.005112193262208991
6464.0,-0.009076517979918803
6468.0,0.009920035411062825
6472.0,0.003642755988318851
6476.0,-0.027031300481645485
6480.0,0.0005970672824387225
6484.0,0.011994808841575881
6488.0,0.010859848608076029
6492.0,-0.005399183907658739
6496.0,0.00897104286858175
6500.0,-0.008042346566090847
6504.0,0.0033123231168189016
6508.0,0.022089304552961504
6512.0,-0.013213846249435572
6516.0,-0.0017738238166703259
6520.0,-0.0038488464242726313
6524.0,0.011216765398745856
6528.0,0.002895802239467823
6532.0,0.011521803354936981
6536.0,0.0011621731348086966
6540.0,-0.005837017111120177
6544.0,0.02452991899728445
6548.0,0.08309376624584044
6552.0,0.07150122451176794
6556.0,0.11660953188936064
6560.0,0.16290328180965497
6564.0,0.1516661394382625
6568.0,0.19409189093413828
6572.0,0.20994716392202892
6576.0,0.21211059595257806
6580.0,0.2410260325037375
6584.0,0.23512915497744682
6588.0,0.23956930730185136
6592.0,0.25549632142082246
6596.0,0.23954494189043093
6600.0,0.2650827532369058
6604.0,0.2254189463146593
6608.0,0.21616577186923383
6612.0,0.1949833573756984
6616.0,0.1687187944199506
6620.0,0.15750897193929816
6624.0,0.11253601652512986
6628.0,0.09557074746820307
6632.0,0.06081733837562213
6636.0,0.015537638549505883
6640.0,-0.004518726970837012
6644.0,-0.022688290883286596
6648.0,-0.00219459724872555
6652.0,-0.0003724627322396681
6656.0,-0.0012518663720609872
6660.0,0.019546552676036257
6664.0,-0.006637832888286246
6668.0,0.008354997930025015
6672.0,-0.027583527980161095
6676.0,0.002849309393434144
6680.0,0.0018361658729648966
6684.0,-0.04256795823605631
6688.0,-0.09042694542080956
6692.0,-0.10406608601454209
6696.0,-0.145294848719964
6700.0,-0.001782551007876827
6704.0,0.11047250449876476
6708.0,0.19336676721134163
6712.0,0.2802814422513998
6716.0,0.3902543057795263
6720.0,0.49494141508052714
6724.0,0.5801542284540055
6728.0,0.7015559547319589
6732.0,0.7632014186325026
6736.0,0.8825811759147271
6740.0,0.9944899913915569
6744.0,0.8815581338745939
6748.0,0.7925257515018997
6752.0,0.7018503505768658
6756.0,0.5693966833451082
6760.0,0.48643277538284807
6764.0,0.3971191351411295
6768.0,0.2905325235391805
6772.0,0.1908869902858711
6776.0,0.09267345881605069
6780.0,0.009562175788138262
6784.0,-0.05475120869595197
6788.0,-0.1308566207599447
6792.0,-0.1892274802803617
6796.0,-0.2264441846930237
6800.0,-0.2796920855691342
6804.0,-0.22329419911166534
6808.0,-0.17701585171441905
6812.0,-0.11868675446712577
6816.0,-0.06612415617489192
6820.0,-0.05534949204987719
6824.0,-0.025078591070576542
6828.0,-0.043926608705054715
6832.0,-0.04467909874743657
6836.0,-0.036728684136680144
6840.0,-0.042474875450135036
6844.0,-0.04464209855865475
6848.0,-0.042685278846940594
6852.0,-0.025634234394476825
6856.0,-0.036869509177697955
6860.0,-0.015640593294881003
6864.0,-0.02910756487075137
6868.0,-0.014582377480074023
6872.0,-0.01872991357503772
6876.0,-0.015620917168430322
6880.0,0.008908276176243428
6884.0,-0.013912950672473957
6888.0,-0.013026126019173351
6892.0,-0.019293536911157618
6896.0,-0.006362501870342575
6900.0,0.00010081022437994577
6904.0,0.004173739132467519
6908.0,0.028009183684309064
6912.0,0.07859814080184252
6916.0,0.08982277017397909
6920.0,0.10949901108939171
6924.0,0.13220163873794405
6928.0,0.14037186501106172
6932.0,0.17337097178121746
6936.0,0.18417070797199897
6940.0,0.2036943397570361
6944.0,0.23788809164345992
6948.0,0.2171960833806128
6952.0,0.2568849815622211
6956.0,0.256536904859999
6960.0,0.28506782710726014
6964.0,0.28465403451134996
6968.0,0.29777577970784713
6972.0,0.2905944823409101
6976.0,0.29490260630559095
6980.0,0.29134871450265803
6984.0,0.2909059730959575
6988.0,0.28748781808111507
6992.0,0.2764015151146513
6996.0,0.28412461562361624
7000.0,0.25032199516120457
7004.0,0.2721220107439769
7008.0,0.2604016981816631
7012.0,0.2382636170876764
7016.0,0.20439461093428615
7020.0,0.20360577292751902
7024.0,0.1960413957492136
7028.0,0.16396833482592255
7032.0,0.15946451120571944
7036.0,0.1294549201955518
7040.0,0.12435538899780156
7044.0,0.09456912131123049
7048.0,0.07142998907269625
7052.0,0.04929528725833674
7056.0,0.032536075946132045
7060.0,0.0008267038044374675
7064.0,0.002893073434961664
7068.0,-0.002453933702492041
7072.0,0.005160188622306033
7076.0,-0.002675233938050588
7080.0,0.0042893834137720036
7084.0,-0.005219632830915319
7088.0,0.006724905992148732
7092.0,-0.004084466463468267
7096.0,0.019146913143095294
7100.0,-0.007333145736574747
7104.0,0.007302888962277519
7108.0,0.0047830899053430695
7112.0,-0.008188013781710588
7116.0,0.0007949985951897831
7120.0,0.00335027205250309
7124.0,-0.0023803074109229622
7128.0,0.004441076002394101
7132.0,-0.014239625329811057
7136.0,-0.005148069785509277
7140.0,0.018030684013877137
7144.0,-0.0023384984165985808
7148.0,0.008524237370749645
7152.0,-0.00751503015412754
7156.0,-0.007983559690869382
7160.0,0.005348893193549272
7164.0,-0.008462584522269648
7168.0,-0.007231024751970203
7172.0,0.005034005330090814
7176.0,0.0015404756210325781
7180.0,0.004521399739592734
7184.0,-0.015486267812925789
7188.0,-0.001140591850292598
7192.0,-0.004027078229018587
7196.0,0.024195207584283375
7200.0,-0.006893746895462556
7204.0,-0.001847549105725328
7208.0,0.0025543023382430356
7212.0,-0.0019049596142485339
7216.0,-0.006902646131582864
7220.0,-0.008752344731939515
7224.0,-0.00749952591850759
7228.0,-0.011274115176201154
7232.0,-0.017887891493716158
7236.0,-0.004586384562447536
7240.0,0.018645597191526603
7244.0,0.0011129414852893652
7248.0,-0.012510242996346415
7252.0,-0.0044800592746610975
7256.0,-0.0021334168776712863
7260.0,-0.0008991023711931745
7264.0,-0.02513951217660976
7268.0,0.01570217314953295
7272.0,-0.004522470510792474
7276.0,0.004715084170547181
7280.0,0.00012303766537025547
7284.0,0.014182751467853564
7288.0,-0.0014615657410781313
7292.0,0.01802904062657989
7296.0,-0.0168554371097679
7300.0,-0.014609273007778102
7304.0,0.004295938473765609
7308.0,-0.0044880168893657695
7312.0,-0.011299633464965785
7316.0,0.002908765456900932
7320.0,0.007966261284371688
7324.0,-0.0056209762148102015
7328.0,0.00827356391612277
7332.0,-0.0025201892855638806
7336.0,0.0009967201466042558
7340.0,-0.006581504967719131
7344.0,-0.0011577675829851047
7348.0,0.0012012520173374055
7352.0,0.0035559900310105745
7356.0,0.0015400873173431412
7360.0,-0.002690011490199556
7364.0,-0.0003005941531897771
7368.0,0.012482711590268526
7372.0,-0.0052372360911820195
7376.0,-0.004162319522583463
7380.0,-0.009074517231039983
7384.0,0.018686839911582095
7388.0,-0.005991522449801775
7392.0,-0.008614579050822569
7396.0,-0.008168719015275263
7400.0,0.008446529408261436
7404.0,0.01793765173988722
7408.0,-0.023160841623307938
7412.0,-0.003759616898523714
7416.0,0.00685623007542184
7420.0,-0.007788766905698939
7424.0,0.010669666798401525
7428.0,-0.0022766292825323713
7432.0,0.0057043464083854755
7436.0,0.006594310055108431
7440.0,0.01556931255330747
7444.0,0.0062378205595486885
7448.0,0.011089819026489107
7452.0,-0.012391443399166806
7456.0,-0.016192800534203237
7460.0,-0.003596684273647774
7464.0,-0.00023388686907311574
7468.0,-0.007962044619160506
7472.0,0.010475684293183154
7476.0,0.005225998525828436
7480.0,0.022348377238757156
7484.0,0.009661935047292685
7488.0,0.0013871116753128123
7492.0,-0.014843029966847419
7496.0,-0.006545015343169127
7500.0,0.010485383966561417
7504.0,0.006887111116005326
7508.0,-0.006468593884344929
7512.0,0.01149277490788007
7516.0,0.015754353480227107
7520.0,0.010745587195939722
7524.0,-0.007133754788090521
7528.0,-0.004251671321794533
7532.0,0.000246131214873358
7536.0,0.011089171994441252
7540.0,0.00606996642855787
7544.0,0.030478543225471992
7548.0,0.06317404920061172
7552.0,0.08681429791398468
7556.0,0.11913408609405463
7560.0,0.14048103394407258
7564.0,0.15725036339116252
7568.0,0.21197996126052204
7572.0,0.23850514645397478
7576.0,0.22839546868378893
7580.0,0.24412862587433537
7584.0,0.25773670149203015
7588.0,0.24634180243438358
7592.0,0.2552654887035627
7596.0,0.2532151136645236
7600.0,0.24783025567373948
7604.0,0.23471178025115896
7608.0,0.21759681640656317
7612.0,0.19997196298158496
7616.0,0.17706759604052452
7620.0,0.14735551902136668
7624.0,0.12051094136387638
7628.0,0.09585921969328318
7632.0,0.05808663385929826
7636.0,0.025315036146130853
7640.0,-0.004498959651824462
7644.0,0.010043755110814427
7648.0,0.006844982858123425
7652.0,-0.007931075938037168
7656.0,0.014667492834847386
7660.0,-0.013937523391010192
7664.0,-0.011627736183967672
7668.0,-0.0010036038701578549
7672.0,0.014574578771909787
7676.0,-0.015622856316059662
7680.0,0.007476915961314846
7684.0,-0.044801323887319305
7688.0,-0.09183917876185145
7692.0,-0.11597066293865299
7696.0,-0.16540691757362327
7700.0,-0.0122929222953647
7704.0,0.09990026497792029
7708.0,0.18466469252795709
7712.0,0.3119777902132708
7716.0,0.40055758307458766
7720.0,0.5203829865727092
7724.0,0.6160314744059434
7728.0,0.7087288978634729
7732.0,0.8124385183780596
7736.0,0.9245814653392007
7740.0,1.0342622541021815
7744.0,0.9098068036590083
7748.0,0.831945899182654
7752.0,0.7094487769773833
7756.0,0.606922071066821
7760.0,0.5060455742062553
7764.0,0.4163776107580181
7768.0,0.3119681928797672
7772.0,0.19579499986360555
7776.0,0.10612891531557755
7780.0,-0.0030234657304949943
7784.0,-0.0772689894614386
7788.0,-0.10361642541221075
7792.0,-0.1847050571611091
7796.0,-0.2591234545157381
7800.0,-0.276411329011031
7804.0,-0.2711103844292347
7808.0,-0.16960971715996984
7812.0,-0.12933220750524235
7816.0,-0.08375088310127089
7820.0,-0.046987378485460064
7824.0,-0.05817959741550617
7828.0,-0.042641640084679126
7832.0,-0.048933535283005494
7836.0,-0.03322833726292661
7840.0,-0.0245317172862298
7844.0,-0.020019642396458037
7848.0,-0.031017438985332196
7852.0,-0.030371262218681153
7856.0,-0.017392740280182728
7860.0,-0.0228156799966793
7864.0,-0.015759654789414705
7868.0,-0.011527270916693448
7872.0,-0.012315043761596027
7876.0,-0.018073683351737004
7880.0,0.004465409821554829
7884.0,0.002957971958711239
7888.0,-0.004142839211441504
7892.0,0.003226828899665946
7896.0,-0.005544021587874599
7900.0,-0.0067242604475048085
7904.0,0.025637704555453052
7908.0,0.04512181021143309
7912.0,0.0735645119826547
7916.0,0.1038405358915148
7920.0,0.11453415765480701
7924.0,0.13914650024590927
7928.0,0.1732352634828726
7932.0,0.1849146773399202
7936.0,0.19618239817261793
7940.0,0.22778555271522394
7944.0,0.23023676178221258
7948.0,0.23787397689549666
7952.0,0.2655582219770532
7956.0,0.28333310633358966
7960.0,0.2962917417767979
7964.0,0.283344372967564
7968.0,0.290441782326974
7972.0,0.3216057027527295
7976.0,0.30625244752562253
7980.0,0.29663744019540766
7984.0,0.29757436092382067
7988.0,0.2945365024631984
7992.0,0.2958761255116365
7996.0,0.2920262432709728
8000.0,0.2823791475593643
8004.0,0.27077699656072973
8008.0,0.25037937032943725
8012.0,0.25014222705388717
8016.0,0.23931363024160973
8020.0,0.22237692451765315
8024.0,0.18745952814571998
8028.0,0.16882061226563397
8032.0,0.1529352356023789
8036.0,0.13753145382465076
8040.0,0.11567723237685767
8044.0,0.09698723487332869
8048.0,0.05975979737295111
8052.0,0.043530934729460145
8056.0,0.01620572012075113
8060.0,-0.018197666725447863
8064.0,0.021972855260137918
8068.0,0.0004753428081779549
8072.0,0.020026066179316366
8076.0,0.009847630432385351
8080.0,0.004042476114004393
8084.0,0.026035335213694805
8088.0,0.00893793707364306
8092.0,0.00971185293354579
8096.0,-0.010147860909404885
8100.0,0.012281288566933604
8104.0,-0.012343382670799954
8108.0,-0.006159800685618185
8112.0,0.0018419697637391448
8116.0,0.003221068341799831
8120.0,-0.0070024759461490005
8124.0,-0.0047130354124663735
8128.0,-0.00494504960007211
8132.0,0.000741959237419149
8136.0,0.0006726086682638725
8140.0,0.005229551006949822
8144.0,-0.008307440368793677
8148.0,-0.004628670155309048
8152.0,-0.0017888814615467708
8156.0,0.0004239497016092319
8160.0,-0.00418715375224665
8164.0,0.026233967985823427
8168.0,0.012105858693066907
8172.0,-0.0055931601863559366
8176.0,-0.0059408810591220955
8180.0,0.004693793245155527
8184.0,-0.002691991012421549
8188.0,0.008581854282389457
8192.0,-0.00013068919316089052
8196.0,-0.0028616528524334655
8200.0,0.016131640117470692
8204.0,-0.020716407783574677
8208.0,0.0033438514084608286
8212.0,0.011031395284359449
8216.0,0.0012550347939929624
8220.0,-0.0016029222035672413
8224.0,-0.0052115100291728845
8228.0,0.012692421193307254
8232.0,-0.007359482103263791
8236.0,0.0055443555125837575
8240.0,0.005877595505754332
8244.0,0.006806631792767042
8248.0,0.019159716317177423
8252.0,0.0019988661142866762
8256.0,0.0033747240322787187
8260.0,0.0042608470167625236
8264.0,0.0038413252157886188
8268.0,-0.012512179437631117
8272.0,0.012208054490038697
8276.0,0.004486333002950012
8280.0,0.01782514080101446
8284.0,0.004063319932633993
8288.0,-0.00991771328621142
8292.0,0.008142466292853449
8296.0,0.019984074745819362
8300.0,-0.009853561776996133
8304.0,0.009654714740182984
8308.0,-0.01647048056602666
8312.0,-0.02253347331885031
8316.0,-0.011379330284618431
8320.0,0.009848489856763464
8324.0,-0.00025440958477966646
8328.0,-0.0025195549115232386
8332.0,-0.005594214103177298
8336.0,-0.001868438081180378
8340.0,-0.002239359824965799
8344.0,-0.00617130410457307
8348.0,-0.0025480348972820844
8352.0,0.0058481173224969344
8356.0,-0.007599735013191279
8360.0,-0.023117317020378187
8364.0,0.0018216272749128385
8368.0,-0.0236507119832221
8372.0,0.006880643431611402
8376.0,-0.0004556344864445157
8380.0,-0.014925815661350405
8384.0,0.010355098528461027
8388.0,0.0002591988831852629
8392.0,-0.002469518063391793
8396.0,-0.005505205308509656
8400.0,0.03193404180031356
8404.0,-0.013918790511902842
8408.0,-0.0009470881984720406
8412.0,-0.009552983807196038
8416.0,-0.00425836322820353
8420.0,-0.018223151196876845
8424.0,-0.003193092613145907
8428.0,-0.00039498993377336846
8432.0,0.005215297611032953
8436.0,-0.01010438602670683
8440.0,-0.0034339785665749097
8444.0,-0.004650585057358468
8448.0,-0.008146879158656504
8452.0,-0.008031777104352787
8456.0,0.00020349217867772168
8460.0,-0.003321573095850337
8464.0,0.02790912658254101
8468.0,-0.0004447092958789845
8472.0,0.01873221134100505
8476.0,0.006464830474337958
8480.0,-0.0034979236434586154
8484.0,0.005497640213796244
8488.0,-0.004499579140982031
8492.0,0.0020445522518207034
8496.0,-0.005077828014695276
8500.0,-0.016748056320254542
8504.0,0.0029876788112563712
8508.0,0.009751405553484258
8512.0,0.00928643892225139
8516.0,0.011608411155390222
8520.0,0.002599483515583738
8524.0,0.00824289408170176
8528.0,-0.013983705848850817
8532.0,-0.01382379322939799
8536.0,-0.005987916154442523
8540.0,0.006610404035482706
8544.0,0.03750392976009074
8548.0,0.07709343994575736
8552.0,0.0901150512462874
8556.0,0.10821338517964911
8560.0,0.1354909190437196
8564.0,0.1664431551533284
8568.0,0.21126674869275744
8572.0,0.2064792643673514
8576.0,0.2144173488806333
8580.0,0.23371923879342138
8584.0,0.2267079566890653
8588.0,0.22273003422167373
8592.0,0.24171288633661897
8596.0,0.23657975874245546
8600.0,0.22525282024311974
8604.0,0.20376348634419436
8608.0,0.20321012956885381
8612.0,0.1768546636882053
8616.0,0.14358491672241064
8620.0,0.10810157336141861
8624.0,0.11428650338977601
8628.0,0.07802287683965652
8632.0,0.05448367207141514
8636.0,0.01298573650342938
8640.0,0.014245446483714065
8644.0,0.005739825369654175
8648.0,-0.016391881083348932
8652.0,0.006218123452794782
8656.0,-0.016884196260230716
8660.0,0.004829039384794537
8664.0,-0.004590752299695571
8668.0,0.004335115681467234
8672.0,-0.005479360550685638
8676.0,0.0005212297750368509
8680.0,-0.0009048908418352605
8684.0,-0.03318152118793447
8688.0,-0.07828478681123444
8692.0,-0.12421397999093836
8696.0,-0.15149616821913975
8700.0,0.001928830259649956
8704.0,0.09570544997982514
8708.0,0.19558828142591542
8712.0,0.28045556296683294
8716.0,0.39482824939191713
8720.0,0.4596347045902061
8724.0,0.5673824592494078
8728.0,0.6643473332408418
8732.0,0.7484820936795404
8736.0,0.8654728902654821
8740.0,0.9546461822920304
8744.0,0.8612470590221682
8748.0,0.7621873278886037
8752.0,0.6731563815281354
8756.0,0.570974729383762
8760.0,0.48061103683228085
8764.0,0.39217165482079397
8768.0,0.30061111380082667
8772.0,0.18108914994798028
8776.0,0.09973121704806316
8780.0,-0.0020083994419474132
8784.0,-0.053757414532447714
8788.0,-0.14329804008198416
8792.0,-0.1886446020389088
8796.0,-0.2479056577839586
8800.0,-0.2864038180347777
8804.0,-0.23157070579957675
8808.0,-0.16439990283036188
8812.0,-0.12170623089866558
8816.0,-0.0676685135927211
8820.0,-0.047378796288944876
8824.0,-0.036512309423891165
8828.0,-0.0357017518815863
8832.0,-0.03595612867287636
8836.0,-0.03468748706269314
8840.0,-0.03998944235400713
8844.0,-0.049986137021863566
8848.0,-0.0083326826993671
8852.0,-0.01802358251587579
8856.0,-0.029004465159796523
8860.0,-0.03413220306694141
8864.0,-0.01602619100769538
8868.0,-0.012276300708668978
8872.0,-0.028046425879429314
8876.0,-0.014059297952347397
8880.0,-0.007035899031538801
8884.0,-0.007481816892756028
8888.0,-0.011498942112032538
8892.0,-0.012533189223717347
8896.0,-0.006539912152636428
8900.0,-0.0003698047898951239
8904.0,0.022752123058785056
8908.0,0.041492331505692814
8912.0,0.0612810772835149
8916.0,0.09814195019507467
8920.0,0.11032255931820255
8924.0,0.1271950352105129
8928.0,0.1587493562212419
8932.0,0.18005163980337022
8936.0,0.1817228255356994
8940.0,0.2006193926932714
8944.0,0.20589522370392388
8948.0,0.22707703346731428
8952.0,0.24659076755568973
8956.0,0.24821982455975491
8960.0,0.25843171215392813
8964.0,0.2600598253165668
8968.0,0.26745811710827117
8972.0,0.28008738700156594
8976.0,0.29243502987533476
8980.0,0.2766456789769762
8984.0,0.2916245411906313
8988.0,0.28378619454479304
8992.0,0.2823917676779434
8996.0,0.2725794568951324
9000.0,0.2839299414744022
9004.0,0.24896432765512494
9008.0,0.24410046809776226
9012.0,0.22366247912072204
9016.0,0.2134792750240239
9020.0,0.196700659992048
9024.0,0.18625670324010588
9028.0,0.17689417793722756
9032.0,0.13132842634687444
9036.0,0.10806218606619304
9040.0,0.12118544492860923
9044.0,0.09099685035075981
9048.0,0.05898984208380921
9052.0,0.05819211215152787
9056.0,0.025093214961817954
9060.0,0.005758735066298319
9064.0,-0.00020243397346773068
9068.0,-0.0031948590252624132
9072.0,-0.014482434276641795
9076.0,0.013259626007022761
9080.0,-0.001041791942469835
9084.0,0.0008138188807408679
9088.0,0.012912986290630597
9092.0,-0.010158314694901307
9096.0,-0.010575594828401575
9100.0,-0.0006435105291354106
9104.0,-0.004827499012489754
9108.0,-0.0006178068139730873
9112.0,-0.0030140899947552714
9116.0,0.0025989906301649712
9120.0,-0.005410744243670044
9124.0,-0.0012332169202332872
9128.0,0.02062499673117194
9132.0,0.018843948430402303
9136.0,-0.005882178146329887
9140.0,-0.0027173574913623173
9144.0,-0.012776687931218446
9148.0,0.0012743807485793102
9152.0,0.019309711383405054
9156.0,-0.019971176336540407
9160.0,0.00552764325752134
9164.0,0.0013634731102577084
9168.0,-0.005236507792500752
9172.0,-0.002934741739740365
9176.0,-0.00917348261875758
9180.0,0.013653125002389301
9184.0,-0.02933915907106074
9188.0,0.007379486372937136
9192.0,0.014436859535036798
9196.0,-0.009187140961602523
9200.0,-0.005863633375931351
9204.0,-0.006155120544629286
9208.0,-0.016355863588857673
9212.0,-0.00046718339301668487
9216.0,0.018726452107049076
9220.0,-0.010977824507205596
9224.0,-0.014057644739988912
9228.0,-0.00798484302946837
9232.0,-0.0018224076676086676
9236.0,-0.007900792897388152
9240.0,-0.010322695488651851
9244.0,-0.02653660686826247
9248.0,-0.006370695546777171
9252.0,0.011601991264142623
9256.0,0.0015120389428116476
9260.0,0.005385060714945593
9264.0,0.015746406844980767
9268.0,0.009810100494273132
9272.0,-0.0072234042163204235
9276.0,0.01584237017182972
9280.0,-0.008700783230322372
9284.0,0.0074196558633081505
9288.0,0.0029267369712588625
9292.0,-0.015208546185995491
9296.0,-0.0019297243445251322
9300.0,0.01856388062074645
9304.0,0.0034068986644190326
9308.0,-0.0025069279579626636
9312.0,-0.014498357175876171
9316.0,0.011570992094048573
9320.0,0.002273534394868378
9324.0,-0.001970923680551582
9328.0,-0.01756530092371356
9332.0,-0.007861873574079152
9336.0,0.006044839988366784
9340.0,-0.0016388777338476113
9344.0,-0.01096497786242104
9348.0,-0.001824436690803064
9352.0,-0.01204818661656565
9356.0,-0.018913156003967566
9360.0,-0.02295842057138732
9364.0,0.014597463242889658
9368.0,0.0020023846189879775
9372.0,0.0021348598292823544
9376.0,0.0024044135082501614
9380.0,-0.009618969939072384
9384.0,-0.011405354651574922
9388.0,-0.008338660468620059
9392.0,-0.0003675691083873526
9396.0,-0.008823567604482446
9400.0,-0.008483275958302356
9404.0,-0.025134575235200844
9408.0,0.0067124766517820044
9412.0,-0.011048477365287968
9416.0,0.014870561944807925
9420.0,0.020620153525993615
9424.0,-0.0007986138375086105
9428.0,-0.011392041479209969
9432.0,-0.00989381116220243
9436.0,0.01575711893616291
9440.0,0.005972722232204479
9444.0,0.003218920701364374
9448.0,0.01139266073618608
9452.0,-0.0049183309247663445
9456.0,0.0005860713231200387
9460.0,-0.010815402927576793
9464.0,-0.006634690978355957
9468.0,-0.004146338171653923
9472.0,-0.0042707762642057515
9476.0,0.02537588347107213
9480.0,0.01403492160996793
9484.0,0.006948396698154121
9488.0,-0.005755939900435301
9492.0,-0.0008121096683501948
9496.0,-0.0001038285216650516
9500.0,-0.0037582897232317477
9504.0,0.012579288140926135
9508.0,0.009859291592393349
9512.0,0.011430922530258531
9516.0,0.008433543264584733
9520.0,-0.02347997164089795
9524.0,-0.0007557096594258195
9528.0,0.004648798459660305
9532.0,0.008558931568394218
9536.0,-0.003830139609876474
9540.0,0.0009175535121968277
9544.0,0.034963496114205156
9548.0,0.06327137596559816
9552.0,0.11281185024629092
9556.0,0.09711283911110685
9560.0,0.1498107113287403
9564.0,0.16034945342998888
9568.0,0.18382164263644288
9572.0,0.18960050736463488
9576.0,0.2266378477464576
9580.0,0.24003533209971528
9584.0,0.233396329368531
9588.0,0.24242283173999324
9592.0,0.24886448139506756
9596.0,0.258238467143769
9600.0,0.22594296379345058
9604.0,0.21214952989644026
9608.0,0.2041216662441144
9612.0,0.18543570630499623
9616.0,0.17643982603995628
9620.0,0.16212228350972827
9624.0,0.12661605986206137
9628.0,0.0837591557049695
9632.0,0.06972930069987496
9636.0,0.018095506754228028
9640.0,0.004803846503501087
9644.0,0.0026419654487007745
9648.0,0.013648798815015973
9652.0,0.003831040487717612
9656.0,0.004632531749167035
9660.0,-0.014534835996036886
9664.0,0.008262664917278938
9668.0,0.0035906159888156562
9672.0,-0.006483914346158592
9676.0,-0.014979860593507437
9680.0,-0.0031553104055971845
9684.0,-0.04233441697085006
9688.0,-0.07279807324233811
9692.0,-0.12698461468606173
9696.0,-0.16118118643943996
9700.0,0.0051014123038541645
9704.0,0.09877335924347513
9708.0,0.20440374215309368
9712.0,0.29077353135684825
9716.0,0.4073851661160961
9720.0,0.48562419680137375
9724.0,0.5773670690329142
9728.0,0.7156548752106098
9732.0,0.7639930117901125
9736.0,0.8745742440159733
9740.0,0.9873856052543369
9744.0,0.8854898388868854
9748.0,0.7984984929533365
9752.0,0.6887930312417043
9756.0,0.5946344429366275
9760.0,0.4927877386265237
9764.0,0.3880575088311659
9768.0,0.2658651816349435
9772.0,0.1866508366067441
9776.0,0.10066474735502716
9780.0,-0.013141185037181273
9784.0,-0.046659177210605904
9788.0,-0.11240481417792104
9792.0,-0.18324002612200505
9796.0,-0.25093034029756
9800.0,-0.2960384413848592
9804.0,-0.24197023847113014
9808.0,-0.16126856072678228
9812.0,-0.12911132654260124
9816.0,-0.06815343110096486
9820.0,-0.05936255010731657
9824.0,-0.05733941159832513
9828.0,-0.029733365500972695
9832.0,-0.028699805615087438
9836.0,-0.024979528835304736
9840.0,-0.04259757490804824
9844.0,-0.0271698790129265
9848.0,-0.02926757525707275
9852.0,-0.019927490728051517
9856.0,-0.023353801685438966
9860.0,-0.041837658624958564
9864.0,-0.015240634717512568
9868.0,-0.014599229180412902
9872.0,-0.00951133277463952
9876.0,-0.018910411892800346
9880.0,0.0017854780771771207
9884.0,-0.028348564666122684
9888.0,0.002930108014005191
9892.0,-0.01658320579688596
9896.0,-0.022088018030858764
9900.0,-0.01515583812641643
9904.0,0.03585327451791705
9908.0,0.04249006126761393
9912.0,0.08561528299790569
9916.0,0.09121972101810807
9920.0,0.10463985686387739
9924.0,0.13909882549066266
9928.0,0.14625351526093153
9932.0,0.17808540655004243
9936.0,0.2018596794078034
9940.0,0.19022787004124256
9944.0,0.22804546209700444
9948.0,0.24304638856232058
9952.0,0.2630312860225467
9956.0,0.26677999614080766
9960.0,0.2765764055300067
9964.0,0.263803717050491
9968.0,0.28231928633088155
9972.0,0.30897902564190033
9976.0,0.3060623680835683
9980.0,0.30634686732346894
9984.0,0.3160942574124993
9988.0,0.286973063368956
9992.0,0.30264531455829385
9996.0,0.28584805009002723
10000.0,0.27287349111074855
10004.0,0.2552145128810173
10008.0,0.2692841518535987
10012.0,0.22841821821091637
10016.0,0.22241001613934439
10020.0,0.2126838919843581
10024.0,0.18318934008319446
10028.0,0.188729637930473
10032.0,0.13637692281595842
10036.0,0.13855491801558006
10040.0,0.12101045161659536
10044.0,0.08274855641331882
10048.0,0.07534926318906088
10052.0,0.03333299441732604
10056.0,0.028269274846558945
10060.0,-0.0011306189259275914
10064.0,-0.006149325214778459
10068.0,-0.0009305268933827383
10072.0,0.009713670821211686
10076.0,-0.0162060977213126
10080.0,0.003037070075959554
10084.0,0.0033438760525120767
10088.0,0.009847731522633909
10092.0,0.007392284181019871
10096.0,-0.01137435004385667
10100.0,0.005075214918936481
10104.0,-0.01423511410784586
10108.0,-0.005394913040773406
10112.0,0.019798008972674128
10116.0,-0.006015158423515187
10120.0,0.02216868281138414
10124.0,-0.024904165055791527
10128.0,0.007083255485480867
10132.0,-0.0030327223467292914
10136.0,-0.0051218042236880115
10140.0,-0.0007729839490596241
10144.0,-0.0019310877960640202
10148.0,0.02257327574698131
10152.0,0.016704991327421304
10156.0,0.0064519347388449985
10160.0,-0.0010055685219250666
10164.0,0.018579563023055256
10168.0,0.008823875473656371
10172.0,-0.0023226027522400662
10176.0,0.0041752240891820905
10180.0,0.00192766647892083
10184.0,-0.0006465972901378882
10188.0,0.011622354236739732
10192.0,-0.011502922767953814
10196.0,0.032120497140060024
10200.0,-0.018534006760640893
10204.0,0.0009190274169022024
10208.0,-0.007980749885853091
10212.0,0.0036998823291344847
10216.0,-0.007817411536796019
10220.0,0.01272042623882408
10224.0,-0.002225526409032148
10228.0,0.007511981166724219
10232.0,0.0044988279061666196
10236.0,0.00969993976491696
10240.0,0.005390784025524522
10244.0,-0.009179549468003171
10248.0,0.0034549818425080505
10252.0,-0.005983860898528266
10256.0,0.002427692186720234
10260.0,0.007704261004167322
10264.0,-0.012209987373488726
10268.0,0.004643066027172147
10272.0,0.0053741670837797705
10276.0,-0.0148410072513699
10280.0,0.012824265357396145
10284.0,0.001425503419280135
10288.0,-0.007910547919312899
10292.0,0.0003117093874712627
10296.0,-0.008576262604958623
10300.0,0.0029215280266081424
10304.0,0.00816228436186289
10308.0,-0.00010108774470195551
10312.0,-0.004843554312714309
10316.0,0.0025222827329255872
10320.0,-0.002980293693259607
10324.0,0.022120662972049853
10328.0,-0.007887368112702083
10332.0,-0.00960690053463524
10336.0,0.007059527760813984
10340.0,-0.01249908832260487
10344.0,-0.0002884100636069858
10348.0,0.00015123276765555054
10352.0,0.008372665542067802
10356.0,-0.012556515020349872
10360.0,-0.014705634197973931
10364.0,-0.00599146457940813
10368.0,-0.00026323128305656153
10372.0,0.009187094414239486
10376.0,-0.008524354327414135
10380.0,-0.0036994948662386166
10384.0,-0.003361105574685071
10388.0,0.0011726647496974926
10392.0,0.009460007438214737
10396.0,0.00905189571988131
10400.0,-0.002157449810488061
10404.0,-0.001653196871130245
10408.0,0.03043772735284154
10412.0,-0.00267430015322799
10416.0,0.0019599102750656747
10420.0,0.0021946125333129752
10424.0,0.007827664987418131
10428.0,0.002358614802815152
10432.0,0.004730412482244807
10436.0,0.008906108609230644
10440.0,0.0023213543214768524
10444.0,-0.006065055456517596
10448.0,0.000284276540261727
10452.0,-0.005193115585472799
10456.0,0.010068940434193494
10460.0,-0.005727117589969643
10464.0,-0.0005967048872755952
10468.0,0.012983368956287142
10472.0,-0.004834984897856808
10476.0,0.012634780282911259
10480.0,0.006427099150066026
10484.0,0.017159177338524
10488.0,-0.005934144456163921
10492.0,0.009507836152116826
10496.0,-0.013431961952946065
10500.0,0.0030595707367671353
10504.0,0.01002556460682973
10508.0,0.008602548476813028
10512.0,0.0034676669868192846
10516.0,0.013171508440060637
10520.0,0.002051780678905507
10524.0,-0.004801652106012131
10528.0,0.005597695956821273
10532.0,0.009215393189539579
10536.0,0.017321396332489428
10540.0,-0.015414359247975911
10544.0,0.01829414586609493
10548.0,0.054477267455450534
10552.0,0.05471379740156914
10556.0,0.1279946818203611
10560.0,0.14039980967585783
10564.0,0.16365131321586698
10568.0,0.17425552049309312
10572.0,0.21628365098101254
10576.0,0.2042468899431717
10580.0,0.22877237368899359
10584.0,0.2304975105061277
10588.0,0.23295852591343896
10592.0,0.24556827223909683
10596.0,0.23370356340520315
10600.0,0.1966696939159549
10604.0,0.2214265268475562
10608.0,0.19838496833312708
10612.0,0.18423073309948768
10616.0,0.1524668081134989
10620.0,0.13820582270838833
10624.0,0.13196942355481805
10628.0,0.09764300289091847
10632.0,0.05989257361813534
10636.0,0.0245924475232109
10640.0,-0.005836396475941189
10644.0,0.006574671466969696
10648.0,-0.009694560757928348
10652.0,0.013781283055239893
10656.0,0.005159419420190875
10660.0,-0.008850274176577235
10664.0,-0.0031203705231580337
10668.0,0.019191964464247497
10672.0,-0.00732337559847236
10676.0,0.0009546811857285591
10680.0,-0.0009145624535862079
10684.0,-0.033158500297053556
10688.0,-0.08704658918486485
10692.0,-0.11360576788717099
10696.0,-0.15397819735461282
10700.0,0.0119201834815824
10704.0,0.08219190366764556
10708.0,0.19583873521053052
10712.0,0.29187534555530786
10716.0,0.3711656560912351
10720.0,0.4830629618034111
10724.0,0.5729271638767657
10728.0,0.6494547213676488
10732.0,0.7747583514008007
10736.0,0.8600600382997813
10740.0,0.9522123712832025
10744.0,0.8665782689023199
10748.0,0.7507957053310852
10752.0,0.6728887647273827
10756.0,0.5828106425644657
10760.0,0.4656356369866305
10764.0,0.38750372217475443
10768.0,0.29595696106976016
10772.0,0.1851034793991614
10776.0,0.10099746037280212
10780.0,0.011212567428217187
10784.0,-0.09278822408856076
10788.0,-0.1085550012865106
10792.0,-0.16163845647264416
10796.0,-0.22026668513985717
10800.0,-0.2821700988973033
10804.0,-0.23135700368627077
10808.0,-0.16575537732677234
10812.0,-0.1044713687148361
10816.0,-0.049732019985340256
10820.0,-0.0436299404642819
10824.0,-0.05423820328375284
10828.0,-0.03803387761191831
10832.0,-0.040228599145028944
10836.0,-0.05372687910442938
10840.0,-0.04327125675516264
10844.0,-0.037551928774282255
10848.0,-0.029015752252193567
10852.0,-0.02834212244096375
10856.0,-0.021853238756663035
10860.0,-0.014746003159324266
10864.0,-0.013685903239725298
10868.0,-0.01679607083893727
10872.0,-0.017453456004066503
10876.0,-0.01189524163212062
10880.0,-0.026070319249650035
10884.0,0.0028130069255295834
10888.0,-0.009582671357475207
10892.0,-0.008334895262075957
10896.0,0.010387311416425932
10900.0,-0.001506643698691266
10904.0,0.02945154745205032
10908.0,0.021666574035929895
10912.0,0.07702390090599455
10916.0,0.07504485480686805
10920.0,0.09781787452280243
10924.0,0.1208598997865959
10928.0,0.13623504578786422
10932.0,0.16748034389273556
10936.0,0.178964160033073
10940.0,0.20253410904323735
10944.0,0.2315389703295665
10948.0,0.233270441913379
10952.0,0.23416347382850614
10956.0,0.2483320935794261
10960.0,0.2675842002153313
10964.0,0.2647523121440099
10968.0,0.2833503042138681
10972.0,0.2816660432689061
10976.0,0.27374967178517745
10980.0,0.2738149983393912
10984.0,0.28487715806571395
10988.0,0.28488492137239896
10992.0,0.28851451594042354
10996.0,0.285455231852093
11000.0,0.2560960479038387
11004.0,0.25794544780349377
11008.0,0.22627862472514426
11012.0,0.22693717141176514
11016.0,0.21285973791051607
11020.0,0.20473834908213784
11024.0,0.19177198458980552
11028.0,0.17250961682111632
11032.0,0.14048129628468226
11036.0,0.1431333583066264
11040.0,0.11103956620903642
11044.0,0.06824525865644611
11048.0,0.07506469055147147
11052.0,0.04678471925366935
11056.0,0.041636619384609316
11060.0,0.0016252012556554887
11064.0,0.014703642812044306
11068.0,0.008499979887703025
11072.0,0.009978384789761893
11076.0,0.010043494942197789
11080.0,-0.007521804019615507
11084.0,0.013236826881583747
11088.0,-5.5565840876814346e-05
11092.0,0.0042873263313743136
11096.0,-0.006471813043554776
11100.0,0.011242124567605401
11104.0,-0.006859554320254198
11108.0,-0.0165495585435409
11112.0,-0.010785274522465445
11116.0,0.0007457735254620202
11120.0,0.002604335708591559
11124.0,0.0016705775996892214
11128.0,0.013210131527400326
11132.0,-0.0035792863816719264
11136.0,0.005842988051847059
11140.0,0.006673399039959289
11144.0,-0.0015336480001040026
11148.0,0.02119239681335361
11152.0,0.0009328853393461462
11156.0,0.000883240593472866
11160.0,0.007720219104820336
11164.0,0.005024849441519295
11168.0,-0.01629938565150644
11172.0,-0.001520019867751969
11176.0,0.00482825731988899
11180.0,0.013336554811917187
11184.0,0.001376798256040611
11188.0,-0.0067994458285645515
11192.0,0.003983359191676769
11196.0,-0.01791350306195321
11200.0,-0.008319145784297783
11204.0,0.001604900069174012
11208.0,0.01735798216949709
11212.0,0.015065903697797062
11216.0,-0.002864136463411985
11220.0,0.010986763829053224
11224.0,-0.006036891550789953
11228.0,-4.1020754315706614e-05
11232.0,0.01837283401322971
11236.0,-0.007032516587793084
11240.0,-0.015880415607014687
11244.0,0.00699998076016387
11248.0,-0.005820667159589953
11252.0,0.009022113714467424
11256.0,0.01629500069932248
11260.0,-0.0046581366931176295
11264.0,-0.007116279131372276
11268.0,0.01722244288792825
11272.0,0.012688883571862562
11276.0,0.012750696742963571
11280.0,0.006299606383706707
11284.0,-0.00840418688077787
11288.0,-0.011750358022422878
11292.0,0.014993117372956695
11296.0,0.019398631205873935
11300.0,0.004606712751297748
11304.0,0.0073382984833996355
11308.0,0.006403735861606257
11312.0,0.015310739021600041
11316.0,0.014605795138180918
11320.0,-0.011373588350751735
11324.0,0.001254442331405832
11328.0,-0.0043256442912846865
11332.0,0.03119641364133503
11336.0,-0.001513563785803409
11340.0,0.00044377045581000786
11344.0,-0.002720497647457349
11348.0,-0.01337686421634084
11352.0,-0.001813978782078855
11356.0,0.00439226856774916
11360.0,0.00712247079925229
11364.0,-0.004607841553171485
11368.0,-0.014609963301843745
11372.0,-0.008840167949283936
11376.0,0.014566346819054696
11380.0,0.011654494423503034
11384.0,-0.022235537146078684
11388.0,-0.01310749937509289
11392.0,-0.002820469941268192
11396.0,0.0013314282172258857
11400.0,-0.009845559281253002
11404.0,0.015207254398650134
11408.0,0.012304203826084414
11412.0,0.012524326140930811
11416.0,-0.0009695871815407302
11420.0,0.01801407596542674
11424.0,-0.009472547022914377
11428.0,-0.008215519889006435
11432.0,0.0126451984223961
11436.0,0.00242682867289951
11440.0,-0.00139314929425316
11444.0,-0.005307113240586069
11448.0,0.004886980747869478
11452.0,0.007472174875621827
11456.0,-0.000589928296588097
11460.0,-0.013919017607793101
11464.0,0.0012173349701911501
11468.0,-0.023764257755097606
11472.0,-7.398335668992232e-05
11476.0,-0.0034345052980987918
11480.0,0.005713540156450696
11484.0,-0.006381100539542522
11488.0,0.007070242982174219
11492.0,-0.004833417032833356
11496.0,0.0011971548931243518
11500.0,-0.002701420399201659
11504.0,-0.01028630206218294
11508.0,0.012724875195921675
11512.0,0.0023061724578470684
11516.0,0.010744716365017651
11520.0,0.005987713349568519
11524.0,-0.005392106272076786
11528.0,0.003902235161823459
11532.0,0.0016603260652312637
11536.0,-0.012047868412278326
11540.0,-0.0008799115961184488
11544.0,0.015448954389107067
11548.0,0.07520037612724606
11552.0,0.10646867012461977
11556.0,0.12659692211898663
11560.0,0.16181970285179184
11564.0,0.1650954618737438
11568.0,0.17298332265686242
11572.0,0.19789120717836559
11576.0,0.21731698951148884
11580.0,0.21918195000715135
11584.0,0.2478954158097877
11588.0,0.2592391475467787
11592.0,0.22442531912416627
11596.0,0.2283234285197958
11600.0,0.22127161003253387
11604.0,0.23149859966112024
11608.0,0.20362516596376434
11612.0,0.18398548758006283
11616.0,0.16699921163092818
11620.0,0.15471020729298599
11624.0,0.11833473221227897
11628.0,0.10227569401520825
11632.0,0.06609497183160964
11636.0,0.029172965017115502
11640.0,0.008081259156327666
11644.0,-0.005216268492617431
11648.0,0.009825785146565558
11652.0,0.008741945367783865
11656.0,-0.019417444311968193
11660.0,0.0015798774763435069
11664.0,-0.0014008127467804066
11668.0,-0.010122265302112306
11672.0,-0.005854345401106836
11676.0,-0.0040421599906306825
11680.0,0.009533351940619548
11684.0,-0.047216786810009466
11688.0,-0.0941709500602752
11692.0,-0.12889093575795532
11696.0,-0.16378254647842236
11700.0,-0.007877893392550692
11704.0,0.09005319985512476
11708.0,0.21165173646957355
11712.0,0.29229659356940757
11716.0,0.3986766259781623
11720.0,0.503713448180519
11724.0,0.5951031611043153
11728.0,0.6988166253819461
11732.0,0.7900407112319048
11736.0,0.9012265231502246
11740.0,0.9917587296094477
11744.0,0.9140078137367865
11748.0,0.8071677898073174
11752.0,0.7071654148487239
11756.0,0.6138015888349441
11760.0,0.5010856903316662
11764.0,0.37253786976059633
11768.0,0.2860437840855821
11772.0,0.20999297540280665
11776.0,0.10537386430290756
11780.0,0.005382354554535991
11784.0,-0.04964530198385995
11788.0,-0.12546513649718327
11792.0,-0.1758944431225271
11796.0,-0.2393745683130823
11800.0,-0.2996700253766504
11804.0,-0.23897412294147943
11808.0,-0.19433327288002208
11812.0,-0.1090411536617506
11816.0,-0.07017047556056928
11820.0,-0.04697711643485385
11824.0,-0.048344339994725774
11828.0,-0.04044271050730724
11832.0,-0.04717894079618016
11836.0,-0.02696612071223569
11840.0,-0.016683159369334673
11844.0,-0.024371631765820613
11848.0,-0.04303797784241654
11852.0,-0.02221041733703686
11856.0,-0.025807783331728673
11860.0,-0.01720848457171207
11864.0,-0.018250399243984267
11868.0,-0.02318207356641366
11872.0,-0.02020044393724939
11876.0,-0.013450213828476587
11880.0,-0.02100299507615959
11884.0,-0.010051514590190129
11888.0,-0.009343716527729575
11892.0,0.000264917896302219
11896.0,-0.002161246254349275
11900.0,-0.0028513463439197107
11904.0,0.016975260719917434
11908.0,0.04605391741092559
11912.0,0.07552454410403106
11916.0,0.09499285040423606
11920.0,0.09868587172209296
11924.0,0.12375113786462597
11928.0,0.15148952027193566
11932.0,0.17744838262411472
11936.0,0.1870555152414952
11940.0,0.21467692553262158
11944.0,0.2259828425383162
11948.0,0.24749688138112097
11952.0,0.2605961344961452
11956.0,0.27174837855898537
11960.0,0.2687848952943572
11964.0,0.2910044653420386
11968.0,0.2862241359274473
11972.0,0.2898151504822701
11976.0,0.29191434265803223
11980.0,0.30303665900522153
11984.0,0.2882850986810141
11988.0,0.29786424496219566
11992.0,0.27116798745913356
11996.0,0.289263683053615
12000.0,0.2750976418221631
12004.0,0.26367955890733225
12008.0,0.2642168368020734
12012.0,0.2617728230766277
12016.0,0.23818781642002446
12020.0,0.2215453532300198
12024.0,0.18096206983642482
12028.0,0.1887430455150153
12032.0,0.16004098778934472
12036.0,0.13999376668664035
12040.0,0.11245963605975753
12044.0,0.07030834250054563
12048.0,0.06847517438913972
12052.0,0.03749655079422056
12056.0,0.02900727327254556
12060.0,0.00609997969746242
12064.0,0.011068267426009038
12068.0,-0.02158948799487008
12072.0,-0.01146229471838003
12076.0,0.0021036143723123374
12080.0,0.007397919426487741
12084.0,-0.011406185843817722
12088.0,-0.001827678597517983
12092.0,-0.009082674195236739
12096.0,-0.01064986202115503
12100.0,-0.0012556730307628204
12104.0,0.0038332969185963348
12108.0,0.0016211461255097779
12112.0,-0.007810862325682153
12116.0,-0.003823050348558166
12120.0,-0.015291382795921925
12124.0,0.008050091227244515
12128.0,-0.00855035986444589
12132.0,-0.0026254207530152147
12136.0,-0.022214335430833954
12140.0,-0.004147135794026423
12144.0,-0.014609906675014423
12148.0,-0.001289099644403899
12152.0,0.006071725723664648
12156.0,-0.00752593902590896
12160.0,-0.0053957732312351556
12164.0,-0.00722906851689065
12168.0,0.013945937591610655
12172.0,-0.02010616481941872
12176.0,0.008770145165929033
12180.0,-0.004235614921765955
12184.0,-0.010970941700040251
12188.0,-0.004654955869411508
12192.0,-0.0050476030990143
12196.0,0.015363304975590866
12200.0,0.011337754404168303
12204.0,-0.0062952001222459164
12208.0,0.012175545356341154
12212.0,-0.006848183951145
12216.0,0.004474436945997034
12220.0,0.01273596058374665
12224.0,0.0036699463807593614
12228.0,0.004875522207965425
12232.0,0.002680068569198069
12236.0,-0.021353403915691575
12240.0,0.008384363654698648
12244.0,-0.007181913730757822
12248.0,0.01200344112359056
12252.0,-0.00484885682319211
12256.0,-0.02737936245948932
12260.0,0.007984793024397623
12264.0,-0.005498075793706002
12268.0,-0.011086767005869113
12272.0,0.0021466762484004033
12276.0,-0.012211274524691078
12280.0,0.02347882394520831
12284.0,-0.0039014576089748706
12288.0,0.0024505554544706617
12292.0,-0.010490206391043559
12296.0,-0.014197926929980145
12300.0,-0.0034161232461739862
12304.0,0.004925916252101605
12308.0,-0.0024321742614239077
12312.0,0.009591733299846106
12316.0,0.006221839531028224
12320.0,0.008990476979432116
12324.0,-0.003327572038515384
12328.0,0.011518314349925762
12332.0,-0.00272751197500952
12336.0,-0.005358736044733904
12340.0,-0.0016890917987279323
12344.0,-0.0026685087395158153
12348.0,0.013444898962200604
12352.0,0.009082746088299662
12356.0,0.009467065812905651
12360.0,0.007491876332996117
12364.0,0.003408881226079904
12368.0,0.006038503594186295
12372.0,-0.0055861556267196525
12376.0,0.014251058271225804
12380.0,0.005112895199730689
12384.0,-0.01825996737681495
12388.0,-0.015901082515702932
12392.0,-0.005964367849234957
12396.0,0.007802151686480714
12400.0,-0.007275773590915485
12404.0,-0.0006050847184758782
12408.0,-0.015822275096687953
12412.0,0.005254530989644973
12416.0,-0.004298450469254537
12420.0,0.0013040427309712003
12424.0,-0.001310723969444357
12428.0,0.0174342462917717
12432.0,0.00010489415382811503
12436.0,-0.010283010982097393
12440.0,0.0072873539463127555
12444.0,-0.0034790983557656946
12448.0,-0.005823659175483858
12452.0,-0.0038203781741825184
12456.0,-0.009747707717180145
12460.0,-0.018894637430524292
12464.0,-0.012599941296864398
12468.0,0.007699568192191185
12472.0,0.00604794545366383
12476.0,-0.00321666850694583
12480.0,0.004874953690244088
12484.0,-0.010184514373715522
12488.0,0.004075829259608908
12492.0,-0.004402762701873043
12496.0,0.007252484759805895
12500.0,0.004758576561626918
12504.0,0.008627554020415006
12508.0,-0.0030852454626480166
12512.0,0.017282371718863467
12516.0,-0.001106932117816716
12520.0,-0.006923396099662268
12524.0,0.014820688464664777
12528.0,-0.0074533075436152355
12532.0,-0.004751930925443615
12536.0,0.003403786968264902
12540.0,0.02080804073459731
12544.0,0.024849224415154955
12548.0,0.05680787784798364
12552.0,0.0959789199021087
12556.0,0.11350044647325258
12560.0,0.1484510106723837
12564.0,0.17251375301804966
12568.0,0.17972305808300762
12572.0,0.2022650337180028
12576.0,0.23257590475944412
12580.0,0.2246208938052644
12584.0,0.23203205013032285
12588.0,0.22523824621580824
12592.0,0.2448381931187155
12596.0,0.23874170911396816
12600.0,0.22082150550795315
12604.0,0.21177966296231723
12608.0,0.21801284454147693
12612.0,0.20452207600606015
12616.0,0.16049816912381196
12620.0,0.14850865018551704
12624.0,0.1062638414001593
12628.0,0.08122088634444713
12632.0,0.06350470175449768
12636.0,0.023202359626277896
12640.0,0.023240462223918425
12644.0,0.003940313658222245
12648.0,-0.002105327529617313
12652.0,-0.009758204835812353
12656.0,-0.01415806783771277
12660.0,0.000777490780046735
12664.0,0.0024376218495720547
12668.0,0.00022473602140748745
12672.0,-0.0014268404829688905
12676.0,-0.0024614113658771026
12680.0,0.013631280542264985
12684.0,-0.03738799243325914
12688.0,-0.07784658913912963
12692.0,-0.12522348931692864
12696.0,-0.163921363223353
12700.0,-0.004436993983461698
12704.0,0.09491705451420249
12708.0,0.2025480342284452
12712.0,0.2927556705539926
12716.0,0.38997740218973254
12720.0,0.49592689429370257
12724.0,0.5847546381049243
12728.0,0.6793243894043306
12732.0,0.772957019048556
12736.0,0.8951782633200281
12740.0,0.9744515346484417
12744.0,0.8824878130786327
12748.0,0.7828913977348151
12752.0,0.6826995432518952
12756.0,0.5785141181591436
12760.0,0.47983511001395607
12764.0,0.38426516292911816
12768.0,0.28782903882418737
12772.0,0.19867137407325847
12776.0,0.10455280542060029
12780.0,-0.013587455605527194
12784.0,-0.0664364167071702
12788.0,-0.11920167381612032
12792.0,-0.18605951532055615
12796.0,-0.24061261285269187
12800.0,-0.28653158963591346
12804.0,-0.25251153514068014
12808.0,-0.1768789514895826
12812.0,-0.12736440681292435
12816.0,-0.057366113536354076
12820.0,-0.05164441019380326
12824.0,-0.06760758703333745
12828.0,-0.038858563494678956
12832.0,-0.032358358248764325
12836.0,-0.040766427036553955
12840.0,-0.04073284442869741
12844.0,-0.036808045559029924
12848.0,-0.030290512913909853
12852.0,-0.03538392599968901
12856.0,-0.027391977414644643
12860.0,-0.0373740364210234
12864.0,-0.01769184067073696
12868.0,-0.034128514769271055
12872.0,-0.02161621619010344
12876.0,-0.016270126835384
12880.0,-0.013178749251978464
12884.0,-0.0016966841668992812
12888.0,0.007312729883723096
12892.0,-0.008608467347389672
12896.0,0.005843824240468108
12900.0,0.0010259538342026779
12904.0,0.032650102647848664
12908.0,0.04187593239383934
12912.0,0.09010721083202781
12916.0,0.09160702347525854
12920.0,0.09838624859089447
12924.0,0.11664157085100925
12928.0,0.16194612133338515
12932.0,0.16096846263966236
12936.0,0.17558010947111782
12940.0,0.20067902374737942
12944.0,0.2201083213821146
12948.0,0.24572801113549306
12952.0,0.2510765114422192
12956.0,0.27301701270947487
12960.0,0.2733533322433698
12964.0,0.26119003700128984
12968.0,0.278562169160043
12972.0,0.30877395418148695
12976.0,0.29398356439515866
12980.0,0.29587615504861237
12984.0,0.286365634180887
12988.0,0.286878533801287
12992.0,0.28339342304981985
12996.0,0.26441905187281556
13000.0,0.25753772736304625
13004.0,0.24272297393409742
13008.0,0.2484807179096524
13012.0,0.23774946142394188
13016.0,0.22962030017727192
13020.0,0.21009638436072
13024.0,0.19254711836273367
13028.0,0.1769301267245328
13032.0,0.16290517890744705
13036.0,0.13769827730586018
13040.0,0.10100468359068762
13044.0,0.08271616561324607
13048.0,0.07427843522811241
13052.0,0.042583501722593224
13056.0,0.018052244786370353
13060.0,-0.005019091938561914
13064.0,-0.01242479623506544
13068.0,0.0036056465002681764
13072.0,-0.009552967010769497
13076.0,-0.004110120582286275
13080.0,0.006018746561841382
13084.0,-0.007432802644091212
13088.0,0.005193630808123323
13092.0,0.006442463057176026
13096.0,-0.006285053118155351
13100.0,0.0019186185191607333
13104.0,-0.0006270475534199464
13108.0,-0.001978738503868206
13112.0,-0.02370660835274837
13116.0,0.015579257584463697
13120.0,0.005129586470705443
13124.0,0.007161793197408704
13128.0,0.0023585408725209024
13132.0,-0.005061228927907141
13136.0,-0.0031628524318181974
13140.0,-0.005231312005285474
13144.0,-0.006611469816806718
13148.0,0.011290162301266162
13152.0,-0.010032024348767902
13156.0,-0.0052689012508684045
13160.0,-0.007787127170424898
13164.0,0.0015755795258376043
13168.0,0.003880407028886524
13172.0,-0.00830473825219675
13176.0,-0.004743262170577395
13180.0,0.000244414776589775
13184.0,-0.017038356347451166
13188.0,-0.0009690931782824038
13192.0,0.010207947511821967
13196.0,-0.012591643518350425
13200.0,-0.006935774411030497
13204.0,-0.008134509003467568
13208.0,-0.0064397941618815355
13212.0,0.007121865471618394
13216.0,-0.012284487962227746
13220.0,0.0019516119901205422
13224.0,0.002742468256261888
13228.0,-2.972235587455131e-05
13232.0,-0.02609478330379037
13236.0,-0.016375059637013807
13240.0,-0.0015506835374677363
13244.0,-0.014166828554985609
13248.0,-0.0005477666878559489
13252.0,-0.013550170388265944
13256.0,0.010711505097442611
13260.0,0.024851634614518822
13264.0,-0.01241463768577571
13268.0,0.00029880437554612285
13272.0,-0.005372105617591867
13276.0,0.0031508647569328165
13280.0,0.011046130708950965
13284.0,-0.0034466127750922
13288.0,-0.003283864179977936
13292.0,-0.00040024518171219464
13296.0,0.0008505435498703286
13300.0,0.0001501483290739636
13304.0,-0.0003981216321982282
13308.0,-0.00766927180359579
13312.0,0.008851016550430238
13316.0,-0.021357559702526542
13320.0,0.0015198660443570976
13324.0,-0.005613884900332822
13328.0,0.0043937402074635465
13332.0,0.0075550036969375236
13336.0,0.005252792085231674
13340.0,0.012893912073990899
13344.0,-0.016277872692146186
13348.0,0.015855406776017957
13352.0,0.0016069573308234658
13356.0,-0.02012399547900145
13360.0,0.004712701288188223
13364.0,-0.004512251810410526
13368.0,-0.019766949961482316
13372.0,-0.0022004483124872386
13376.0,0.007947929255286302
13380.0,-0.0033045717866615407
13384.0,-0.002443200001534771
13388.0,0.0066519359565899005
13392.0,-0.0017829572001372882
13396.0,-0.013148389303530196
13400.0,-0.00379137210949315
13404.0,0.005907017185880869
13408.0,0.0005940225070728405
13412.0,-0.005710618418145455
13416.0,-0.009186477796837443
13420.0,-0.016582266075516203
13424.0,-0.01176237930317395
13428.0,0.005932247021614743
13432.0,-0.007841794012485392
13436.0,-0.007094133644018523
13440.0,0.008226001333364718
13444.0,0.011504797835446117
13448.0,-0.0006632637221760523
13452.0,-0.0049239866891731664
13456.0,0.0025309753325151335
13460.0,-0.01711792076805444
13464.0,0.005725485570445401
13468.0,0.01238370173429291
13472.0,-0.01282911907961767
13476.0,0.003955293129492264
13480.0,-0.01402907291393909
13484.0,-0.0006794757757521799
13488.0,0.008790734362728788
13492.0,-0.013545518763812823
13496.0,0.010451765673077006
13500.0,0.009840608398413737
13504.0,-0.011197707348079275
13508.0,0.00031072800565691675
13512.0,-0.007628148431910412
13516.0,0.012931887144257623
13520.0,-0.015663120545186145
13524.0,0.0032273557424724896
13528.0,-0.0025530527955129707
13532.0,-0.015539360002084413
13536.0,-0.009796705209913902
13540.0,-0.014288290185173719
13544.0,0.034008376092498384
13548.0,0.056775930312945005
13552.0,0.07598533886291019
13556.0,0.11128868622489496
13560.0,0.12696157144121434
13564.0,0.1596035578741737
13568.0,0.18672814735921542
13572.0,0.1966844800986272
13576.0,0.23244736821872644
13580.0,0.22800628394806335
13584.0,0.24197286819920583
13588.0,0.24186367688706545
13592.0,0.24416489898860957
13596.0,0.23889554512109812
13600.0,0.23974827737759513
13604.0,0.2265312481786461
13608.0,0.20870141406892662
13612.0,0.1802698209270594
13616.0,0.16247040147349842
13620.0,0.13398264921130718
13624.0,0.12080617022983196
13628.0,0.09907978067167349
13632.0,0.07122886601149078
13636.0,0.05255488859729241
13640.0,-0.002986155385041449
13644.0,0.005213989986387139
13648.0,-0.004786966121076109
13652.0,0.0006740652557084727
13656.0,-0.005461357609535033
13660.0,0.02381713461559847
13664.0,-0.0045987171561944215
13668.0,-0.005495903626975409
13672.0,-0.006748753278746558
13676.0,0.019350264173142857
13680.0,-0.0047262313893607286
13684.0,-0.035102614197973565
13688.0,-0.09919858058773695
13692.0,-0.10701409101302355
13696.0,-0.14525304988994658
13700.0,0.011423641239800083
13704.0,0.07616748246353898
13708.0,0.19418764655354703
13712.0,0.2715446641413204
13716.0,0.3826263660315806
13720.0,0.5002030259042353
13724.0,0.5720446417387156
13728.0,0.6560041578601252
13732.0,0.7742676689881325
13736.0,0.8867145363921272
13740.0,0.9778663220658812
13744.0,0.8741494644640343
13748.0,0.7563218212076918
13752.0,0.6838619629824425
13756.0,0.5837900326735109
13760.0,0.4866057695914861
13764.0,0.3822693066133264
13768.0,0.284885598243136
13772.0,0.19079588838554723
13776.0,0.09469930090781227
13780.0,-0.024094695787283228
13784.0,-0.07231656979126846
13788.0,-0.12418987577104994
13792.0,-0.15749855730698228
13796.0,-0.21623379007846286
13800.0,-0.30191532435814245
13804.0,-0.22894404222638398
13808.0,-0.1668808525167702
13812.0,-0.12244891875977991
13816.0,-0.05528225337500508
13820.0,-0.02801788615429496
13824.0,-0.04067262405173323
13828.0,-0.058044436482953835
13832.0,-0.030668789531743297
13836.0,-0.03426726231909628
13840.0,-0.04786115764782834
13844.0,-0.031264341429263424
13848.0,-0.027845868177351733
13852.0,-0.03805680196721502
13856.0,-0.010736280023654662
13860.0,-0.03154519949642619
13864.0,-0.01755453835641971
13868.0,-0.02751782503246924
13872.0,0.0015243406278719028
13876.0,-0.034138680756755024
13880.0,0.0032697089364874758
13884.0,-0.022333010121148147
13888.0,0.008360826767517536
13892.0,0.011242795646888527
13896.0,-0.017967558329750756
13900.0,0.009932245000953625
13904.0,0.011106859802577071
13908.0,0.04009712626564574
13912.0,0.06806797492636094
13916.0,0.0888051915678806
13920.0,0.132035969197523
13924.0,0.1386632284101939
13928.0,0.13681122493503417
13932.0,0.16628363864345233
13936.0,0.19467054079772755
13940.0,0.19975471232461836
13944.0,0.21353095040770986
13948.0,0.22507124060597258
13952.0,0.23440087770164608
13956.0,0.2775158893536828
13960.0,0.27029907655964974
13964.0,0.2750107905686091
13968.0,0.27966978259434927
13972.0,0.28998417348030303
13976.0,0.2895814909979958
13980.0,0.3022135797350282
13984.0,0.2894628541283982
13988.0,0.2945435070324721
13992.0,0.28320941510812175
13996.0,0.27276780067778883
14000.0,0.27578611726343993
14004.0,0.2582249482862719
14008.0,0.25130720181938493
14012.0,0.2309094490519854
14016.0,0.2266223731229074
14020.0,0.21342268511278822
14024.0,0.2012998052599313
14028.0,0.1642920385812571
14032.0,0.1471956852040871
14036.0,0.12252716396863783
14040.0,0.09251641323731269
14044.0,0.08265844520864199
14048.0,0.06011162705765179
14052.0,0.05119022629987138
14056.0,0.021964489421642062
14060.0,0.005476852282102623
14064.0,0.018924055437587614
14068.0,0.0031736630076450684
14072.0,-0.015535081622557095
14076.0,-0.017842238244929493
14080.0,-0.005891834364542114
14084.0,0.0093275998631234
14088.0,0.000981821393923713
14092.0,-0.011057541602902335
14096.0,0.009110815498909101
14100.0,0.003639128059529227
14104.0,0.02057785221646883
14108.0,0.0038003780042497994
14112.0,0.01483402665983602
14116.0,-0.014526065363540529
14120.0,-0.0031576162823917907
14124.0,-0.006507524171063178
14128.0,-0.0024438212720231615
14132.0,-0.010270624918262066
14136.0,-0.002720939562880203
14140.0,0.0005058601261332612
14144.0,-0.008180692157626545
14148.0,-0.0017807855936903827
14152.0,0.007854583508573812
14156.0,-0.024518628575404586
14160.0,-0.0008412740558922316
14164.0,-0.006799381774215441
14168.0,-0.016271824603688242
14172.0,-0.004718366821077206
14176.0,-0.014818333391339334
14180.0,0.010512333315169436
14184.0,0.014934122905139605
14188.0,-0.0022678295158831616
14192.0,-0.011523920377137701
14196.0,-0.009154688517179025
14200.0,0.01096948218701346
14204.0,-0.008720244524026213
14208.0,0.015417055057605161
14212.0,-0.0057988139343968185
14216.0,-0.007838264986387464
14220.0,0.005890639881161415
14224.0,-0.004777292345198517
14228.0,-0.025193248081594607
14232.0,0.0010540810559626212
14236.0,-0.00851100587440066
14240.0,0.006636978472045443
14244.0,0.00014083830658474894
14248.0,0.0042746942529295505
14252.0,0.008591026336924198
14256.0,0.0046310869202137814
14260.0,0.0009909531039206825
14264.0,-0.0062825251946738506
14268.0,0.00479010042101918
14272.0,-0.008288725150086312
14276.0,-0.014129994986822792
14280.0,0.0058517002478955474
14284.0,0.002775610148993645
14288.0,0.007432798158595865
14292.0,0.005942777876189353
14296.0,-0.0030454655513709704
14300.0,-0.009200382153480912
14304.0,0.006032845098312615
14308.0,-0.004437780195772793
14312.0,0.02224423026749405
14316.0,0.0021556311754173663
14320.0,-0.00449168247779697
14324.0,0.0015716977006961102
14328.0,0.000637124058237427
14332.0,0.022107657358502918
14336.0,-0.00388744042140254
14340.0,-0.0044550116806452034
14344.0,0.012191232461253627
14348.0,-0.00040028964642013624
14352.0,-0.006089529189460543
14356.0,0.007697691875848738
14360.0,-0.00994748979095805
14364.0,0.003713692118276084
14368.0,0.0004561921195481826
14372.0,0.012091161999638314
14376.0,0.006924117656031751
14380.0,-0.0021430087677469546
14384.0,0.008255223537915954
14388.0,0.009731482832625472
14392.0,-0.003667323288927773
14396.0,0.02715719578864905
14400.0,0.016291015750312575
14404.0,-0.0020586311626097447
14408.0,-0.00550185885589086
14412.0,0.01951487845974351
14416.0,-0.0037832449004370746
14420.0,-0.005925949709535859
14424.0,-0.003573792589068951
14428.0,-0.004663406565978946
14432.0,-0.0001655900639592355
14436.0,6.948695476315575e-05
14440.0,0.00361298808954897
14444.0,-0.008967811843479804
14448.0,-0.016399805632449894
14452.0,0.012482966419460543
14456.0,0.008919270215009857
14460.0,-0.0030592099841743534
14464.0,0.004576951688415567
14468.0,0.014082002638208184
14472.0,0.005450295423727859
14476.0,-0.0009575891715994503
14480.0,0.004563305021935815
14484.0,-0.0047168011740913295
14488.0,-0.00897632755336786
14492.0,-0.012974739626892185
14496.0,0.004590261535029956
14500.0,0.025571081851662823
14504.0,-0.0050941628826475386
14508.0,-0.0026945030535423286
14512.0,-0.0002356308094947807
14516.0,-0.013527719985456892
14520.0,0.011040456636707862
14524.0,0.001271791893956336
14528.0,0.0034753080397625963
14532.0,0.0026636602877689215
14536.0,0.006609018643432753
14540.0,-0.01035024787302921
14544.0,0.025093247615465324
14548.0,0.06981528723978345
14552.0,0.10654607995500892
14556.0,0.10911205838652517
14560.0,0.11997010015727935
14564.0,0.15420609671221816
14568.0,0.2007339177552517
14572.0,0.19659400267840585
14576.0,0.20915396550956264
14580.0,0.2544816749290656
14584.0,0.24195933682434026
14588.0,0.25644007710414596
14592.0,0.24282687702691627
14596.0,0.2454894255512189
14600.0,0.23288055965872434
14604.0,0.22660908440030966
14608.0,0.21303958627203093
14612.0,0.2148094782039151
14616.0,0.1668975737593407
14620.0,0.15937901362401496
14624.0,0.12558186309722372
14628.0,0.0967801757625389
14632.0,0.06334888831418592
14636.0,0.017338571284373328
14640.0,0.001028243329804579
14644.0,-0.002043467691885288
14648.0,-0.00039562768566558563
14652.0,-0.01202175917532138
14656.0,-0.002597617302116276
14660.0,-0.00368144820450739
14664.0,-0.01244888237255734
14668.0,0.012617395519056298
14672.0,0.008453392272947923
14676.0,-0.002767394286101706
14680.0,0.015027605203437034
14684.0,-0.03910797518807533
14688.0,-0.07610110633389895
14692.0,-0.12617877985417789
14696.0,-0.15608609638974855
14700.0,-0.0003644421957445409
14704.0,0.10199052260274945
14708.0,0.20034221759767684
14712.0,0.27830282815067264
14716.0,0.3953017125710691
14720.0,0.5197162130868825
14724.0,0.6039870538047889
14728.0,0.6894020455816243
14732.0,0.7795359665186065
14736.0,0.9015643234878767
14740.0,0.9979452836097719
14744.0,0.8920168432601758
14748.0,0.7996875042128077
14752.0,0.679002204730346
14756.0,0.6132953594513464
14760.0,0.5041248545487275
14764.0,0.40600016665663846
14768.0,0.3060085421476254
14772.0,0.20192910396722735
14776.0,0.09648313420431902
14780.0,0.012335406135442964
14784.0,-0.061248352134807726
14788.0,-0.10971216464769915
14792.0,-0.1613741326122513
14796.0,-0.22697315434689372
14800.0,-0.2953496037323992
14804.0,-0.2288797221674939
14808.0,-0.18913297603853946
14812.0,-0.13053485861289713
14816.0,-0.05328942675777689
14820.0,-0.04491974320418704
14824.0,-0.032782642295318916
14828.0,-0.042414939690988196
14832.0,-0.03748993549659345
14836.0,-0.059665199954424264
14840.0,-0.039466622977998675
14844.0,-0.03300597340690552
14848.0,-0.04112387766867864
14852.0,-0.04285242369360044
14856.0,-0.03552899202214171
14860.0,-0.027147040024921232
14864.0,-0.01866442815601872
14868.0,-0.02342992504822437
14872.0,-0.0033520285001814795
14876.0,-0.031654236934072946
14880.0,-0.024468074506570736
14884.0,-0.006380379065178403
14888.0,-0.026638378184754476
14892.0,0.0035401268500204136
14896.0,-0.010792086290066083
14900.0,-0.00465385603523733
14904.0,0.036305019972444674
14908.0,0.04795479011195181
14912.0,0.06840483247381426
14916.0,0.08260688243324765
14920.0,0.12551014830080742
14924.0,0.13816469501529094
14928.0,0.15746104472540395
14932.0,0.18013885888749376
14936.0,0.19945068211518785
14940.0,0.21104559914811502
14944.0,0.21205849554472
14948.0,0.23005777249210077
14952.0,0.2715988989754435
14956.0,0.266845507623766
14960.0,0.25627093433125786
14964.0,0.28923349818123345
14968.0,0.28577142973103464
14972.0,0.2841278256045057
14976.0,0.31394990405716244
14980.0,0.29177135885784067
14984.0,0.28552053766436025
14988.0,0.2885988566627429
14992.0,0.2930756828909264
14996.0,0.29395423504171014
15000.0,0.2804826934096304
15004.0,0.2582196664464275
15008.0,0.27079062599261083
15012.0,0.228739333558222
15016.0,0.23837120865467512
15020.0,0.19816009731652853
15024.0,0.20507775448292712
15028.0,0.17327778615377185
15032.0,0.1441498881784971
15036.0,0.15014909162554405
15040.0,0.12114266946200485
15044.0,0.07366254212299948
15048.0,0.09605486724872755
15052.0,0.054211803478645425
15056.0,0.026217016364146067
15060.0,0.004309688451100307
15064.0,0.0036497499333496726
15068.0,0.0134951281003334
15072.0,-0.0013700661997375586
15076.0,0.0018565454049875273
15080.0,0.011212230023276681
15084.0,0.008637364170751373
15088.0,-0.007947176583520208
15092.0,-0.012128619447117166
15096.0,-0.0006638861095354327
15100.0,-0.0008586400206181692
15104.0,0.011183485434766787
15108.0,0.011766423622717764
15112.0,0.0023706679641301016
15116.0,0.0002027788263960891
15120.0,0.005718984661209455
15124.0,0.009959735745629208
15128.0,-0.001066243312885861
15132.0,-0.0031298562837526896
15136.0,0.02528211242352577
15140.0,-0.003940241597470979
15144.0,0.009293873382882283
15148.0,0.0025656714342079455
15152.0,-0.011127739314510667
15156.0,0.00669098618429627
15160.0,0.010408039376882172
15164.0,-0.0031046897370595305
15168.0,0.0007290353025228934
15172.0,0.025946758600690997
15176.0,-0.00529512240795919
15180.0,-0.010561484405237454
15184.0,-0.003804351990975244
15188.0,3.550596392191814e-05
15192.0,0.0022177890299226745
15196.0,0.004067572753157151
15200.0,-0.009650720752658394
15204.0,-0.006538875134648406
15208.0,-0.0034518013271481515
15212.0,-0.00144912849838494
15216.0,0.002467953438733625
15220.0,0.007663761980736356
15224.0,-0.003922370902621296
15228.0,0.0018592553494642628
15232.0,-0.021358180452975307
15236.0,0.007956947111144743
15240.0,0.002564280024878316
15244.0,0.003504206971655522
15248.0,-0.016212502389830304
15252.0,0.004439664769049448
15256.0,-0.0031718381405586157
15260.0,-0.0013985275180663506
15264.0,0.0029741444982112676
15268.0,0.0033804922500925015
15272.0,0.01310917292395599
15276.0,-0.012698040048993383
15280.0,0.008856403774146586
15284.0,-0.011279509536346162
15288.0,0.004163430734401203
15292.0,-0.00023564229898451926
15296.0,-0.007104786099176327
15300.0,0.00785049489392184
15304.0,0.01269266007940093
15308.0,-0.008911851610754513
15312.0,0.01189077778711014
15316.0,-0.0035956459412908614
15320.0,0.00548093441143541
15324.0,-0.0032896883300081226
15328.0,-0.00901678508473756
15332.0,-0.005237219467111979
15336.0,0.0018609545695149115
15340.0,-0.006591073306242876
15344.0,-0.01117099467992217
15348.0,-0.0016658481310989725
15352.0,0.0010959777546721181
15356.0,0.01577526449714373
15360.0,-0.008984136418098058
15364.0,-0.0007523002050558972
15368.0,-0.006100659117104726
15372.0,-0.007045741804821402
15376.0,-0.01122056026704574
15380.0,0.014236299577710818
15384.0,0.0016044998598356193
15388.0,0.0120579221351388
15392.0,0.01047908027904816
15396.0,0.0038634809975045753
15400.0,0.009516421734297462
15404.0,0.002123454843574276
15408.0,-0.02195084746755384
15412.0,0.00896034184158847
15416.0,-0.013928889234979938
15420.0,0.00027587732137941765
15424.0,-0.025597740516565076
15428.0,-0.0015106062441633194
15432.0,0.008816748091348367
15436.0,-0.003703372654527441
15440.0,0.004654764912164941
15444.0,-0.02098539504935232
15448.0,0.021877324768759417
15452.0,-0.0003444425037814544
15456.0,0.003255465618159522
15460.0,-0.005753122669673509
15464.0,0.00392228971739871
15468.0,0.0020740620637940336
15472.0,-0.0009217984305581287
15476.0,0.00398663699112251
15480.0,-0.007716830065681343
15484.0,0.007868940496626292
15488.0,-0.011080161408249006
15492.0,-0.016708986663482608
15496.0,-0.006319793951540839
15500.0,-0.011271921447666125
15504.0,0.005296552982824838
15508.0,0.018963444391517318
15512.0,0.01139058590796664
15516.0,0.011925307489104746
15520.0,0.014341133529179845
15524.0,0.004015509847096812
15528.0,-0.015305116932315567
15532.0,-0.0026019014870893096
15536.0,0.0010790777885365263
15540.0,-0.005281173726983577
15544.0,0.0016398949113239705
15548.0,0.06439114100504414
15552.0,0.08749813757823716
15556.0,0.12294822657227987
15560.0,0.1315805144298538
15564.0,0.1686516398944373
15568.0,0.18350051834444037
15572.0,0.2090838591112039
15576.0,0.22186113780063316
15580.0,0.2227479604114295
15584.0,0.22851151269753048
15588.0,0.2394148118459323
15592.0,0.2514549837027699
15596.0,0.23234450225312153
15600.0,0.20641549864300085
15604.0,0.2235167577687494
15608.0,0.1946719679904268
15612.0,0.17384113287617142
15616.0,0.15174681452110012
15620.0,0.14865187786120027
15624.0,0.12168225949325606
15628.0,0.09374808123236071
15632.0,0.0618500472260384
15636.0,0.034256622913991765
15640.0,-0.022989410525465798
15644.0,0.002149593656869298
15648.0,-0.0018515815124347142
15652.0,0.0047003766990889725
15656.0,0.004742121537889611
15660.0,0.010785693279661617
15664.0,0.009549332464800829
15668.0,0.010762748315787335
15672.0,-0.011405303649982317
15676.0,0.0009070348384344969
15680.0,-0.011782966823716339
15684.0,-0.03345154336401447
15688.0,-0.08933765775481549
15692.0,-0.11182351224952651
15696.0,-0.15297640613785674
15700.0,0.016190265159118266
15704.0,0.09012149695342198
15708.0,0.1782889280240451
15712.0,0.29534180708124474
15716.0,0.3919163461155704
15720.0,0.4773707515330822
15724.0,0.5704363921887942
15728.0,0.6684351609710588
15732.0,0.768315524248807
15736.0,0.8570625038526641
15740.0,0.9603897399740626
15744.0,0.8568557353389346
15748.0,0.7643695440952838
15752.0,0.663625335764726
15756.0,0.579090225555324
15760.0,0.4827542578535091
15764.0,0.3815721799421258
15768.0,0.31381548748768706
15772.0,0.17849820014763493
15776.0,0.08728974568926054
15780.0,0.021594016132073658
15784.0,-0.09113062620901667
15788.0,-0.10785681412743978
15792.0,-0.1614974185394692
15796.0,-0.23374843379513677
15800.0,-0.2842924987523214
15804.0,-0.2228802680151869
15808.0,-0.16172491138794068
15812.0,-0.11829789017050454
15816.0,-0.05412248846766576
15820.0,-0.04106157960358459
15824.0,-0.055638723813131674
15828.0,-0.01845632644559967
15832.0,-0.04286636450159913
15836.0,-0.02178468408224273
15840.0,-0.03521543049362934
15844.0,-0.023014209104561978
15848.0,-0.02241617031218519
15852.0,-0.02229813098635577
15856.0,-0.018030199086570137
15860.0,-0.0284528174095243
15864.0,-0.03750211332663565
15868.0,-0.019673042569559096
15872.0,-0.02371643037313084
15876.0,-0.013673575205544717
15880.0,-0.003035485295116356
15884.0,-0.017873824059720912
15888.0,-0.018427579991641307
15892.0,-0.0072504351740698865
15896.0,0.009314138504140087
15900.0,-0.0060994041292254456
15904.0,0.009700955113390095
15908.0,0.044057906836766705
15912.0,0.063063853588413
15916.0,0.08646060561407282
15920.0,0.12810246446397172
15924.0,0.14133304315287948
15928.0,0.16057247923934706
15932.0,0.1668703044030604
15936.0,0.18427190051130476
15940.0,0.18904463516439465
15944.0,0.21946539577496338
15948.0,0.23918810387415623
15952.0,0.23526819032768548
15956.0,0.2619959173634667
15960.0,0.2531362341224882
15964.0,0.2705457636609849
15968.0,0.28265210736209717
15972.0,0.28701709361533656
15976.0,0.2907909003897637
15980.0,0.27438059888017885
15984.0,0.2838520075885076
15988.0,0.28445298902539634
15992.0,0.28090438514553157
15996.0,0.29449935087769186
16000.0,0.26021200806226713
16004.0,0.25111685453734084
16008.0,0.2678184901053466
16012.0,0.2285237735353269
16016.0,0.21929479824362663
16020.0,0.21181438398587216
16024.0,0.19147636057292017
16028.0,0.16733578014316197
16032.0,0.14723826144901972
16036.0,0.13460268943616718
16040.0,0.12104271423613122
16044.0,0.0858462457529379
16048.0,0.06115775271646806
16052.0,0.05634507545528651
16056.0,0.03408667083372696
16060.0,-0.004194647182580467
16064.0,-0.006187282760403745
16068.0,-0.008011124136798145
16072.0,-0.018381411718480206
16076.0,0.01113527277526424
16080.0,0.006676338076183959
16084.0,-0.007064001398458288
16088.0,-0.005349398369105449
16092.0,0.002907614358329868
16096.0,-0.014633219882159218
16100.0,-0.009359616420590928
16104.0,0.0038143894923616034
16108.0,-0.015656531217389226
16112.0,0.0030708855712211144
16116.0,-0.0024232159888217305
16120.0,-0.0035954344021904617
16124.0,-0.012953980122601214
16128.0,-0.012776662850271665
16132.0,-0.007866617790409022
16136.0,-0.00205079207547467
16140.0,0.004929975786907985
16144.0,-0.005181411225300902
16148.0,-0.005459226107745676
16152.0,-0.005524395934551706
16156.0,0.010089556553479094
16160.0,-4.067538752840771e-05
16164.0,-0.00589458270606754
16168.0,0.00277700665741649
16172.0,0.0009159064729041669
16176.0,-0.001352852845589892
16180.0,-0.001642566843837174
16184.0,-0.002300913837778802
16188.0,0.0029317701155805414
16192.0,-0.011754406686807174
16196.0,0.005993249737627462
16200.0,-0.005012104042345667
16204.0,-0.0022302323636136283
16208.0,0.013308568447038621
16212.0,-0.00014949277216378873
16216.0,0.004746828254823977
16220.0,-0.004107247472342496
16224.0,0.0034108467868383934
16228.0,-0.006895150572532479
16232.0,-0.009986069293561
16236.0,0.020593711847521946
16240.0,0.006930847435093919
16244.0,-0.012984354575391046
16248.0,0.0016868464554510004
16252.0,0.006684385110023526
16256.0,0.001392903879952537
16260.0,0.014604765198951864
16264.0,0.007406948406237726
16268.0,-0.0072837903483579216
16272.0,0.0010091304213018868
16276.0,-0.00439557009453798
16280.0,-0.004388867310639844
16284.0,0.013309800466517719
16288.0,0.015042459877915455
16292.0,0.011880382450580271
16296.0,-0.006305838521777933
16300.0,0.0039165485590685785
16304.0,-0.017560404012441026
16308.0,-0.004841928465587759
16312.0,-0.012918085567949949
16316.0,0.025836417575250372
16320.0,-0.011384110406651191
16324.0,-0.010840260346515269
16328.0,0.005954810283333583
16332.0,0.013381761492349684
16336.0,0.0008838811348390761
16340.0,0.01006630904201699
16344.0,0.0036832128770800734
16348.0,-0.018022469999639367
16352.0,0.011739347511068865
16356.0,0.012529080005375256
16360.0,0.014586938498667117
16364.0,0.01515622318716333
16368.0,-0.0007354409819666161
16372.0,-0.005823794926074721
16376.0,-0.0027744723330076306
16380.0,-0.0005062061895419794
16384.0,-0.0014957569766433064
16388.0,0.0006949145716042968
16392.0,0.028754575821435816
16396.0,0.0018851910477726093
16400.0,0.005290865624792318
16404.0,0.009039408740134662
16408.0,0.009706566051388896
16412.0,0.010245827004376996
16416.0,0.0004781593038687997
16420.0,0.0015635259544878079
16424.0,-0.005106926267407885
16428.0,0.0022916188444904733
16432.0,0.0016548423244706694
16436.0,-0.0015084153100836204
16440.0,0.013768483842799016
16444.0,0.013875134278910514
16448.0,0.0012377046436432952
16452.0,0.013818481231625228
16456.0,0.006387039919255722
16460.0,0.0012453102907370823
16464.0,-0.00320666949252992
16468.0,0.008674734189592118
16472.0,-0.009804575854350862
16476.0,-0.017579964218996567
16480.0,-0.0056207712322147284
16484.0,0.013612732660076739
16488.0,0.004438210617330628
16492.0,-0.004107277824805335
16496.0,0.007605773413402712
16500.0,-0.0017486511642608243
16504.0,-0.0038506803940846564
16508.0,0.004154986234997942
16512.0,-0.008398519909874223
16516.0,-0.005809149961481543
16520.0,0.0002458783275687743
16524.0,0.013721151997263523
16528.0,-0.0021948493060264785
16532.0,-0.0027875244876080034
16536.0,0.001036016514943503
16540.0,-0.007709217585355899
16544.0,0.023580460947308708
16548.0,0.05554127643466841
16552.0,0.07763076182002862
16556.0,0.1020511884055858
16560.0,0.13711859928221296
16564.0,0.1672656628257651
16568.0,0.16861731610703407
16572.0,0.18836201634582375
16576.0,0.21430471932766063
16580.0,0.20380304509879255
16584.0,0.2587877173272482
16588.0,0.23543554193440616
16592.0,0.2552042758803108
16596.0,0.24506309348361777
16600.0,0.21911724945567965
16604.0,0.22228356311241035
16608.0,0.2083129261297993
16612.0,0.17958596511756814
16616.0,0.16188641214713623
16620.0,0.13235586041105413
16624.0,0.13740692946019895
16628.0,0.08574697961750478
16632.0,0.06009083581131649
16636.0,0.02444868156235713
16640.0,-0.009738999939505512
16644.0,-0.010547988977350707
16648.0,-0.008277994777163577
16652.0,0.004504702788982659
16656.0,0.0033559010267145977
16660.0,0.02163432174043
16664.0,-0.004221945248956439
16668.0,0.01916579089401943
16672.0,-0.007696289381877096
16676.0,0.014081428958031578
16680.0,-0.017221891929447394
16684.0,-0.03335369375998463
16688.0,-0.0797396994345012
16692.0,-0.10418459540969763
16696.0,-0.16132656016384758
16700.0,0.01320072768534201
16704.0,0.10092724013229454
16708.0,0.19300747790167436
16712.0,0.2757572642566661
16716.0,0.39117879141077133
16720.0,0.48679178506216586
16724.0,0.5724692222458317
16728.0,0.6838361901684951
16732.0,0.7736782201304572
16736.0,0.8691675423109732
16740.0,0.9572913719445587
16744.0,0.8715171120911512
16748.0,0.7908615438211842
16752.0,0.676441482361534
16756.0,0.563578792692576
16760.0,0.47374766725571765
16764.0,0.37474981634004334
16768.0,0.2835168812883716
16772.0,0.20678536188872654
16776.0,0.08819892015233095
16780.0,0.01741046329861274
16784.0,-0.07198819720560769
16788.0,-0.12212532655021126
16792.0,-0.1671106416718385
16796.0,-0.21918198837153977
16800.0,-0.2898612815073787
16804.0,-0.23712229446098448
16808.0,-0.16529673330300101
16812.0,-0.1249354305712359
16816.0,-0.07327140759541007
16820.0,-0.05110306769811755
16824.0,-0.05583253671375721
16828.0,-0.044039622208508766
16832.0,-0.036094833435251994
16836.0,-0.03870042818519744
16840.0,-0.034640650142684803
16844.0,-0.025376842911920723
16848.0,-0.011205161385606115
16852.0,-0.023809113843695603
16856.0,-0.03540931983953155
16860.0,-0.024468333420525058
16864.0,-0.006125928015536738
16868.0,-0.014242614301507105
16872.0,-0.002780334439610996
16876.0,-0.025452432491825196
16880.0,-0.01650042820780311
16884.0,-0.018244232912236823
16888.0,-0.010314595883961115
16892.0,0.0008454307092721413
16896.0,0.00018361362550368921
16900.0,-0.009361347861888207
16904.0,0.024378918251838997
16908.0,0.04014214567138779
16912.0,0.05519646276720021
16916.0,0.09188292693034564
16920.0,0.12744609611101299
16924.0,0.1289801995299691
16928.0,0.14162041334003572
16932.0,0.17156566436537665
16936.0,0.1951323779948318
16940.0,0.19824360984888545
16944.0,0.2024625792206089
16948.0,0.24805655243587457
16952.0,0.23181405802827637
16956.0,0.2560642033910163
16960.0,0.2636314546621879
16964.0,0.2690233399748333
