time,value
0.0,0.012096590487914059
4.0,0.003938746433792806
8.0,0.006032681407604238
12.0,-0.0012005391136415706
16.0,-0.003664304766485113
20.0,-0.0047360747973858195
24.0,-0.0005911790882191123
28.0,0.024728272872192477
32.0,-0.005298929256140912
36.0,-0.009611353267176275
40.0,-0.005016713125364259
44.0,-0.01174090770575569
48.0,-0.023890178804846195
52.0,0.009483677835389621
56.0,-0.006607889394686467
60.0,-0.01541179041455953
64.0,-0.004414971187419225
68.0,-0.004557404684532533
72.0,0.011489856243384965
76.0,0.014871865038150585
80.0,0.011895388438155814
84.0,0.008680120628670174
88.0,-0.008470534529242844
92.0,-0.0012643785055313104
96.0,0.006184435800496432
100.0,-0.023286258280345664
104.0,0.004688532569771421
108.0,0.015437679315795363
112.0,-0.0005681193534108816
116.0,0.005460423240047085
120.0,-0.003161512441789814
124.0,0.019286562659211585
128.0,0.016816587133096524
132.0,0.002252092434695761
136.0,-0.004199061004570023
140.0,0.0012484832195353548
144.0,0.008384517198808436
148.0,0.00034703201451057584
152.0,-0.0052011894480818825
156.0,-0.005270339588040957
160.0,-0.0066169141878542935
164.0,0.008256951565540033
168.0,0.010626602398639669
172.0,-0.010574106926013974
176.0,0.006908015081830098
180.0,0.00650255155200717
184.0,-0.008476252307561946
188.0,-0.010511703407042841
192.0,-0.004690655544522472
196.0,0.008360162476377398
200.0,0.0049097409373619946
204.0,0.0014158262164628297
208.0,0.006979282998505016
212.0,-0.007987965163765664
216.0,-0.010738364299496657
220.0,-0.012134031749922159
224.0,0.012552351548260756
228.0,0.0040092715004915805
232.0,0.01180755813873299
236.0,0.011860334653714284
240.0,-0.02053321931387486
244.0,-0.005127247277065923
248.0,-0.009667629929798884
252.0,-0.006408368584895232
256.0,-0.010309927341888262
260.0,0.011649284103812026
264.0,0.003292344668979087
268.0,-0.00011869109200114952
272.0,-0.008348802463188249
276.0,0.009604313564684022
280.0,-0.004261108730933554
284.0,0.012239356241334487
288.0,0.006344427740916021
292.0,0.007335235342647088
296.0,0.010937441697682678
300.0,-0.012650827871806762
304.0,-0.00530658608828749
308.0,0.000719769032219773
312.0,0.009096335796154207
316.0,-0.011417193807266596
320.0,-0.01620853870776751
324.0,-0.000725333327855853
328.0,-0.0010556083783389897
332.0,-0.004198005717312337
336.0,-0.0034051020096074296
340.0,-0.017483745364905906
344.0,-0.002658393504922535
348.0,-0.007983806401829118
352.0,-0.027034062352773183
356.0,-0.014495890425598616
360.0,0.0012671079967823452
364.0,0.00991778186228378
368.0,-0.010436756706217744
372.0,-0.002092325225518291
376.0,0.01232764206846002
380.0,-0.022059053390141217
384.0,0.0005103351535426206
388.0,-0.004287146560728498
392.0,0.0013979113543146596
396.0,-0.007278658003227301
400.0,0.006736035854545776
404.0,0.020805115557797984
408.0,0.011130215515828623
412.0,-0.006031180987568075
416.0,-0.0034434191313147174
420.0,-0.015167707970419442
424.0,0.021054307965510274
428.0,-0.01955647069139233
432.0,0.0017063767038533895
436.0,-0.0021245580081276673
440.0,-0.015005662039128802
444.0,0.009777104680082298
448.0,-0.00044084762074055885
452.0,-0.0001752231092049834
456.0,-0.003206892427543884
460.0,-0.0010132175086350766
464.0,-7.640956678673992e-05
468.0,-0.006341384365926234
472.0,-0.005702200086391872
476.0,-0.00761087449427398
480.0,0.0245052890655842
484.0,-0.001507356697342284
488.0,0.005491389866885702
492.0,-0.008820391872304042
496.0,-0.01653575123656423
500.0,-0.011097695833849085
504.0,-0.0008261735334286572
508.0,-0.005278390864263222
512.0,0.007014222277142355
516.0,0.008373831036483419
520.0,-0.01839767844404742
524.0,-0.011942938798350296
528.0,0.003958891010650885
532.0,0.00192383509406574
536.0,0.0009647067330862976
540.0,-0.0010268285038518808
544.0,0.025225371249974992
548.0,0.06050070185618164
552.0,0.08991651333096523
556.0,0.11990244382049475
560.0,0.16343672375344753
564.0,0.18182460426721905
568.0,0.2236144364598386
572.0,0.22666996769362455
576.0,0.23422700321665382
580.0,0.2509175826681998
584.0,0.2597070374626199
588.0,0.24655950345636493
592.0,0.24943470879771765
596.0,0.2654012250005422
600.0,0.2454761364930194
604.0,0.25101242592264345
608.0,0.23183911810343538
612.0,0.2066312950061914
616.0,0.1798063632741026
620.0,0.15988079831001403
624.0,0.12365477400600572
628.0,0.09103916511128984
632.0,0.06325019890024125
636.0,0.04846166803295534
640.0,-0.002757681288107543
644.0,0.008221801331144134
648.0,-0.021610738843069518
652.0,0.006054341896972277
656.0,-0.0015228566812746788
660.0,-0.0027976105480275056
664.0,-0.0018242896037305688
668.0,0.0009139253408605387
672.0,0.014946656375655733
676.0,-0.001763778017209083
680.0,0.009012978041849097
684.0,-0.04458033254616977
688.0,-0.09258015818245868
692.0,-0.11423656531177365
696.0,-0.18475865200890573
700.0,0.010027257572855051
704.0,0.09694963734053158
708.0,0.21971477780059182
712.0,0.3213365178926961
716.0,0.4155145099126858
720.0,0.515788796217496
724.0,0.6385785083978708
728.0,0.7252569825839968
732.0,0.855484785735415
736.0,0.9401120647763114
740.0,1.0594675087880725
744.0,0.9442795042561943
748.0,0.8381017506458138
752.0,0.7258180097906077
756.0,0.6211009885730724
760.0,0.5167699668722379
764.0,0.41854438501971886
768.0,0.3193366228176742
772.0,0.20315526566864284
776.0,0.10779759890237434
780.0,-0.020567881315793048
784.0,-0.05271639593354921
788.0,-0.14066353237326426
792.0,-0.1862501062462798
796.0,-0.2466591326827284
800.0,-0.30341260901099393
804.0,-0.2481683121884033
808.0,-0.17051583078064747
812.0,-0.10267612838585377
816.0,-0.07310433356532678
820.0,-0.05150763790001579
824.0,-0.0329931495450034
828.0,-0.05361241424669419
832.0,-0.055788999834057745
836.0,-0.05419032906591688
840.0,-0.036536146726729946
844.0,-0.03877511381390564
848.0,-0.03051718811834668
852.0,-0.03311400962535104
856.0,-0.028011145602255386
860.0,-0.0256560942558682
864.0,-0.013771395479069307
868.0,-0.03472878989192705
872.0,0.0014056985902682513
876.0,-0.026941334702679245
880.0,-0.011240552434179898
884.0,-0.022253990940153644
888.0,-0.005158605026720652
892.0,-0.005535485916435195
896.0,-0.00012583956555847287
900.0,0.002448458023731248
904.0,0.018061562516273708
908.0,0.047772578121982615
912.0,0.05858436682356054
916.0,0.09058364098058874
920.0,0.10895682034386958
924.0,0.1344390095515122
928.0,0.14957404996209295
932.0,0.18291824868719553
936.0,0.2174620757946356
940.0,0.20878647341559975
944.0,0.24838321208409592
948.0,0.23909674870253214
952.0,0.26626925130059503
956.0,0.2580635192217964
960.0,0.295492916249749
964.0,0.2995625178488866
968.0,0.30506423551950707
972.0,0.32020837519885786
976.0,0.31991930494261295
980.0,0.31434534852165646
984.0,0.3021318216369146
988.0,0.307552889351809
992.0,0.29904417811257566
996.0,0.312696312704403
1000.0,0.29329076848278174
1004.0,0.2846197518997915
1008.0,0.2728575588813538
1012.0,0.2496510063192528
1016.0,0.21650738451719936
1020.0,0.2309837624914772
1024.0,0.2149461028264846
1028.0,0.19252448197174274
1032.0,0.16173592421845032
1036.0,0.1355035972575426
1040.0,0.14069569436578877
1044.0,0.09937661253422972
1048.0,0.07969114548621738
1052.0,0.04394650612629011
1056.0,0.00380711101843053
1060.0,0.001871111672830874
1064.0,-0.0031748751072838174
1068.0,0.004887540607594506
1072.0,-0.0036636161892977005
1076.0,0.009300220060153963
1080.0,-0.004267921794589437
1084.0,-0.00962681359249787
1088.0,-0.011876798294736035
1092.0,0.007838368763719348
1096.0,0.011975638812421698
1100.0,0.002217692027394782
1104.0,0.012556425063932388
1108.0,0.016790868130351078
1112.0,0.00396740215021647
1116.0,0.007328011267269087
1120.0,-0.012205557749093281
1124.0,0.003957952125567453
1128.0,-0.0034973477650381986
1132.0,0.022040388635650675
1136.0,-0.0032357980814556454
1140.0,0.0024474063742473736
1144.0,0.0017748840685445067
1148.0,-0.0302898806516247
1152.0,0.00834214748289288
1156.0,-0.010081706029940126
1160.0,0.013560474048925495
1164.0,-0.0045151835976012435
1168.0,-0.0054812111265142936
1172.0,0.006760159676138412
1176.0,-0.0034104345744245678
1180.0,0.009778641822463746
1184.0,0.012761511399057204
1188.0,-0.0037672813025813544
1192.0,0.009747666971466165
1196.0,-0.003891530790290872
1200.0,0.020171393897733775
1204.0,-0.002127822422986864
1208.0,0.002247853356164527
1212.0,-0.004531212286349571
1216.0,-0.003993257760552312
1220.0,-0.002148149552391615
1224.0,-0.004773995519595722
1228.0,-0.01569646223637641
1232.0,0.003211671587598173
1236.0,-0.016206580134143757
1240.0,-0.0015242657769193278
1244.0,0.0008494226563470737
1248.0,-0.0013457300313460404
1252.0,0.009144962288585256
1256.0,0.008839357268213817
1260.0,0.003983645034722436
1264.0,-0.005976921959529482
1268.0,0.022565146471868996
1272.0,-0.013105593845015313
1276.0,0.008591982087615052
1280.0,0.0045257349316808965
1284.0,-0.001752164691872251
1288.0,0.02060237893976714
1292.0,-0.008746509990287022
1296.0,0.0026992671146460257
1300.0,0.008366300811627671
1304.0,0.002455434974863728
1308.0,-0.005122131046839241
1312.0,0.0010432249464282677
1316.0,0.006466734686471939
1320.0,-0.0013807887123333921
1324.0,-0.014856398595050436
1328.0,-0.011330916935778066
1332.0,-0.0005287184694631159
1336.0,-0.0034993525796633744
1340.0,0.011464063741120195
1344.0,0.028307106224899313
1348.0,0.0483013482865639
1352.0,0.09613123956788128
1356.0,0.13066152032795764
1360.0,0.13544405760425285
1364.0,0.17538421341730928
1368.0,0.18850941211832503
1372.0,0.20378747838677494
1376.0,0.19790021437922622
1380.0,0.23231415997772606
1384.0,0.24751604177072217
1388.0,0.2521884504269749
1392.0,0.24859421205133717
1396.0,0.24841358715199713
1400.0,0.21274641923987786
1404.0,0.21551975057980005
1408.0,0.20831367400330333
1412.0,0.17931615597918327
1416.0,0.1638769901962725
1420.0,0.14457618407079448
1424.0,0.11460223024828448
1428.0,0.0935437698934384
1432.0,0.06435735676028408
1436.0,0.03945084611229454
1440.0,0.012864362250413892
1444.0,0.018061214553892774
1448.0,-0.004268444858991603
1452.0,0.0033370979771522847
1456.0,0.007977866695258663
1460.0,-0.014044860004219955
1464.0,-0.008502590987568002
1468.0,0.007372474029598701
1472.0,0.0024762403172055463
1476.0,0.02047368564340292
1480.0,0.0006975131638956196
1484.0,-0.04593346710087812
1488.0,-0.06999314487303361
1492.0,-0.10574903738961171
1496.0,-0.16706689150277057
1500.0,-0.004633939245862119
1504.0,0.10123952146215291
1508.0,0.19462553663385015
1512.0,0.29531415429668734
1516.0,0.3902743854208596
1520.0,0.4822984734203254
1524.0,0.5838740040382224
1528.0,0.6819492910337198
1532.0,0.7478841274779964
1536.0,0.8762436253715639
1540.0,0.969504804789252
1544.0,0.8807381379817295
1548.0,0.7959056808612004
1552.0,0.6944876308960872
1556.0,0.5688485150630671
1560.0,0.48259254697238546
1564.0,0.3691857688087319
1568.0,0.29964686806810653
1572.0,0.1873107567365558
1576.0,0.10004980981164645
1580.0,0.0163929417491346
1584.0,-0.05716939014690033
1588.0,-0.11749574242020969
1592.0,-0.16939778251180254
1596.0,-0.2471610980269585
1600.0,-0.2765384549152634
1604.0,-0.2293993467543591
1608.0,-0.15635506240536917
1612.0,-0.1291689897786572
1616.0,-0.0589829018376882
1620.0,-0.03191777568622227
1624.0,-0.05458488998550149
1628.0,-0.0433152865949484
1632.0,-0.029640700839018437
1636.0,-0.043201462033736926
1640.0,-0.030512790715825404
1644.0,-0.046884471432848865
1648.0,-0.027311431707241828
1652.0,-0.03674643161612377
1656.0,-0.03149560211498642
1660.0,-0.02940435155387726
1664.0,-0.02823786285101633
1668.0,-0.01042406178309833
1672.0,-0.0217464321113574
1676.0,-0.014350522802106826
1680.0,0.00377677877274569
1684.0,-0.012433937380815302
1688.0,0.0016391898772078152
1692.0,0.011233332318835533
1696.0,-0.00038548814696825204
1700.0,0.015314590317736819
1704.0,0.018845121263173146
1708.0,0.04881972472204417
1712.0,0.08632878224460189
1716.0,0.08257751792698187
1720.0,0.10681464424424537
1724.0,0.1514238706454737
1728.0,0.1590661202298851
1732.0,0.19330274332043532
1736.0,0.1902680785492957
1740.0,0.20960734411528065
1744.0,0.2065479953109822
1748.0,0.24308531312334875
1752.0,0.25421122900176635
1756.0,0.2564982635740979
1760.0,0.2783161478244254
1764.0,0.28872046392222805
1768.0,0.2889423978568664
1772.0,0.29978769953378515
1776.0,0.288102168145955
1780.0,0.2978058224190237
1784.0,0.2870944385558689
1788.0,0.2978069934973611
1792.0,0.3009159462445357
1796.0,0.27138596709947843
1800.0,0.27766194918540127
1804.0,0.26153935222560815
1808.0,0.23195400599757507
1812.0,0.22742117835281087
1816.0,0.21373014520864103
1820.0,0.18915768167911345
1824.0,0.18891224324557906
1828.0,0.1756530249569842
1832.0,0.16285829127477813
1836.0,0.12721468901104735
1840.0,0.1141465757678434
1844.0,0.09330630429677979
1848.0,0.06545143885112144
1852.0,0.04477109122683306
1856.0,0.015266306769263115
1860.0,-0.019352776120260748
1864.0,-0.0040337844079030485
1868.0,0.006672500691926723
1872.0,-0.02112669602510526
1876.0,-0.0004649860048356057
1880.0,-0.010433278276645587
1884.0,-0.010198986355049185
1888.0,0.004585224371158647
1892.0,0.004677061030850978
1896.0,0.009481732060607224
1900.0,0.007918898108304847
1904.0,0.0004253826106727103
1908.0,-0.0029680827111383747
1912.0,-0.016278014382848364
1916.0,0.009965819697765175
1920.0,0.01275050735625117
1924.0,-0.008844228060613765
1928.0,-0.003786224812766247
1932.0,0.0025035824395587304
1936.0,-0.005665959615051706
1940.0,0.00896755554457495
1944.0,-0.004356221008094394
1948.0,0.0025346778982837156
1952.0,0.010938810894194177
1956.0,0.0044083627364521795
1960.0,-0.0004243669125912196
1964.0,0.00863405163019357
1968.0,-0.008891366292357721
1972.0,-0.00855405647150205
1976.0,-0.010385332753270924
1980.0,-0.010132784404844877
1984.0,0.0010140001393842183
1988.0,0.006650438087856251
1992.0,0.0017240192925361917
1996.0,0.003763309953472735
2000.0,-0.004557331882899238
2004.0,-0.01317863173951261
2008.0,0.003491977652999425
2012.0,0.0020850166769605855
2016.0,-0.012673057929023497
2020.0,0.002334266818587957
2024.0,0.014983485242149857
2028.0,-0.0020386141670893096
2032.0,-0.004535235226399145
2036.0,0.0035550597864486507
2040.0,-0.0007614157296635992
2044.0,0.01501488319460071
2048.0,0.0034031498837035273
2052.0,-0.012394454409342127
2056.0,-0.0046002825785895
2060.0,-0.005328291995204414
2064.0,-0.013340809416226758
2068.0,-0.005139353230184116
2072.0,0.004464162551164333
2076.0,-0.0111300244227044
2080.0,-0.0100680541124492
2084.0,0.014438608431885347
2088.0,0.007926817888000781
2092.0,0.00989552316020111
2096.0,0.01371951722996307
2100.0,-0.008056970493291406
2104.0,0.01226570711093501
2108.0,0.0011461273997463478
2112.0,-0.007372070650627168
2116.0,-0.0003647244956146867
2120.0,0.007153240395769175
2124.0,0.001674105184877313
2128.0,0.005265864157492781
2132.0,-0.004259327627133495
2136.0,0.0016215409408029038
2140.0,0.0006670283076153385
2144.0,0.034176341008550847
2148.0,0.06066759973462442
2152.0,0.09215146886018506
2156.0,0.10829849526919136
2160.0,0.14177286444343234
2164.0,0.16485937692844996
2168.0,0.19192011523538235
2172.0,0.21036003854142848
2176.0,0.21440784586763345
2180.0,0.22214663015958014
2184.0,0.2502170636816096
2188.0,0.25116902017330617
2192.0,0.2561360323670144
2196.0,0.22759334530518077
2200.0,0.23692497005397795
2204.0,0.21068369818415583
2208.0,0.18602800966879626
2212.0,0.1735128157557717
2216.0,0.15141241023528415
2220.0,0.15177242219771797
2224.0,0.11294954543601642
2228.0,0.09621090829951406
2232.0,0.07038021924996768
2236.0,0.030401260229833842
2240.0,0.005784933946140416
2244.0,0.021889338851635323
2248.0,-0.015820152488170577
2252.0,0.014277279647879343
2256.0,-0.0036573075373936116
2260.0,0.0076428350539235025
2264.0,-0.0032400270226715816
2268.0,-0.013736793948653852
2272.0,0.004396274187154422
2276.0,-0.027114615438743186
2280.0,0.0070913347869743576
2284.0,-0.04047765166020293
2288.0,-0.0753909699694105
2292.0,-0.105764860393664
2296.0,-0.1325655560007798
2300.0,-0.008116910221386092
2304.0,0.10196930069504917
2308.0,0.1862285463725425
2312.0,0.26390663327900554
2316.0,0.3968506630642669
2320.0,0.4628741346255542
2324.0,0.5623747345395629
2328.0,0.6754899764758989
2332.0,0.7611398427888518
2336.0,0.8548319214587278
2340.0,0.9509576497536827
2344.0,0.8536631755287933
2348.0,0.7607816891166691
2352.0,0.6741191531110378
2356.0,0.5928433708247145
2360.0,0.4885398207773713
2364.0,0.3840067427947649
2368.0,0.28425428715985246
2372.0,0.1995594943086406
2376.0,0.08183886745145255
2380.0,0.011263792353463427
2384.0,-0.053977949082756334
2388.0,-0.10774128175380657
2392.0,-0.17395705628066355
2396.0,-0.2259869563379134
2400.0,-0.2776629686877229
2404.0,-0.2440948763503119
2408.0,-0.18253428973215932
2412.0,-0.12822091050594356
2416.0,-0.048948700691134654
2420.0,-0.051057827168315015
2424.0,-0.06821547904452682
2428.0,-0.04884249886098655
2432.0,-0.03069632258898419
2436.0,-0.03355675386829084
2440.0,-0.03478342545996814
2444.0,-0.036649146390048355
2448.0,-0.015449553717870082
2452.0,-0.010580075723497815
2456.0,-0.025250936078160324
2460.0,-0.02773777241094816
2464.0,-0.030916526536909614
2468.0,-0.01851164691005781
2472.0,-0.012327248906695171
2476.0,-0.016270422422983617
2480.0,-0.007421552519408285
2484.0,-0.010883198649565003
2488.0,-0.005138532746640115
2492.0,0.013514585766622959
2496.0,0.012468401868996004
2500.0,0.0009579924603838871
2504.0,0.0239672672192121
2508.0,0.035992623323301685
2512.0,0.06658371233464455
2516.0,0.09400511845179281
2520.0,0.10766441689256921
2524.0,0.12047868703315467
2528.0,0.14204234195892548
2532.0,0.18278185878531394
2536.0,0.203138585221401
2540.0,0.22800055109118933
2544.0,0.21982499406204337
2548.0,0.2250693334028295
2552.0,0.23862269307299394
2556.0,0.2522380155095941
2560.0,0.2786170319510981
2564.0,0.26118865165692684
2568.0,0.27831426394035536
2572.0,0.2744036527983169
2576.0,0.2896174835574014
2580.0,0.2861093580534886
2584.0,0.28573497764836153
2588.0,0.2886842967434881
2592.0,0.26266037504386375
2596.0,0.26865757544643126
2600.0,0.2673484616353889
2604.0,0.28460171841917964
2608.0,0.24168172678713717
2612.0,0.22099931832732797
2616.0,0.2216486596767179
2620.0,0.20690573163251003
2624.0,0.1784361343266212
2628.0,0.16645325528088364
2632.0,0.1495907735221806
2636.0,0.1404523554149877
2640.0,0.1076272824492134
2644.0,0.09243942275332034
2648.0,0.07231176600573723
2652.0,0.04222893031684553
2656.0,0.0213360426558478
2660.0,0.01779938854844892
2664.0,-0.009736950347639738
2668.0,-0.005421015958067518
2672.0,-0.0028556422864110267
2676.0,-0.0007072755169917179
2680.0,0.002924604305955264
2684.0,0.004134290119655807
2688.0,-0.0025698522351632505
2692.0,0.011435999229158526
2696.0,-0.005687068839857446
2700.0,0.012330177968105253
2704.0,-0.0035448457579111236
2708.0,-0.011609009178091347
2712.0,-0.0009408181293849899
2716.0,-0.004746026045735385
2720.0,0.007781675199726843
2724.0,0.011404761357770963
2728.0,-0.007335389591799536
2732.0,-0.004611298509534309
2736.0,0.014018003672647763
2740.0,-0.004634147621533266
2744.0,0.012041943013499173
2748.0,0.002889703585309489
2752.0,-0.0018526962301568153
2756.0,-0.012680433293125844
2760.0,-0.0009470672917513298
2764.0,0.01410984309686897
2768.0,0.010972886225237222
2772.0,0.007761871899520508
2776.0,0.005720575506659944
2780.0,-0.015358513171539252
2784.0,-0.007427044115136481
2788.0,-0.0012406059639348058
2792.0,0.006421779885639985
2796.0,-0.004933826023855195
2800.0,-0.0031716261759883787
2804.0,0.02096777538733853
2808.0,-0.0062607465375073106
2812.0,0.0011385688379865933
2816.0,0.0036979143303058643
2820.0,-0.0012730153254052552
2824.0,-0.0020662678856569775
2828.0,-0.0004327495051745791
2832.0,-0.0008638457373568324
2836.0,-0.0027348898523298954
2840.0,-0.006043605738803637
2844.0,0.0025254074564520198
2848.0,-0.0006869317674582414
2852.0,0.0031353036435583467
2856.0,0.001620548936829649
2860.0,-0.0018236687194294967
2864.0,-0.009872261686878839
2868.0,0.000889485860233977
2872.0,-0.0145584727793738
2876.0,-0.0023338436540368806
2880.0,0.017345594694778706
2884.0,-0.00464147412466212
2888.0,-0.002072115354279528
2892.0,-0.02370550860443619
2896.0,-0.009539276734677424
2900.0,0.010033010655367458
2904.0,0.007180234363834576
2908.0,-0.003659605641771382
2912.0,0.0036072043988816726
2916.0,0.018888933575819323
2920.0,-0.0022017451214115195
2924.0,-0.010837733013546172
2928.0,0.007967195598554121
2932.0,-0.002032444356190168
2936.0,0.002561614384717012
2940.0,-0.010323062425922876
2944.0,0.021947620706994117
2948.0,0.05140612880850727
2952.0,0.09489699285861639
2956.0,0.1395078047488352
2960.0,0.15944067193039577
2964.0,0.18077739457983777
2968.0,0.18163502723121405
2972.0,0.22473127906856336
2976.0,0.22323282181775211
2980.0,0.24543571463915217
2984.0,0.2399361563584454
2988.0,0.26983782390995215
2992.0,0.26333817596558873
2996.0,0.253799937144454
3000.0,0.2502515534487508
3004.0,0.2418563673208642
3008.0,0.2166975492075975
3012.0,0.2009352996994656
3016.0,0.1773399572492782
3020.0,0.15434597762084426
3024.0,0.12865562683703263
3028.0,0.09857993098609677
3032.0,0.055408413365819593
3036.0,0.032578444564663925
3040.0,0.010704739487876855
3044.0,-0.0029908118347616564
3048.0,0.006095702058828495
3052.0,0.0015951369460037593
3056.0,-0.0066635129006198815
3060.0,0.005830424987549365
3064.0,-0.005631407398598626
3068.0,0.0011104273901804118
3072.0,0.0004588711247115075
3076.0,0.0014277460157083005
3080.0,-0.017973220598067146
3084.0,-0.04205140158976278
3088.0,-0.07213220409253335
3092.0,-0.14318920414701547
3096.0,-0.16721585497074337
3100.0,-0.009051346634209733
3104.0,0.08732971266517368
3108.0,0.20557953854870953
3112.0,0.3007365065650976
3116.0,0.3996840537943618
3120.0,0.5150147323473302
3124.0,0.6093426293848458
3128.0,0.7221127236306812
3132.0,0.8428387181671493
3136.0,0.9261388161813913
3140.0,1.0355642452552534
3144.0,0.9234526355322221
3148.0,0.8343619624950318
3152.0,0.7277016087000561
3156.0,0.6316562877769465
3160.0,0.49427721896800747
3164.0,0.4261462951147556
3168.0,0.3054373069429874
3172.0,0.21024433011004365
3176.0,0.11300328948182012
3180.0,0.005644708660848615
3184.0,-0.0564968863956432
3188.0,-0.1360904114855059
3192.0,-0.19290815509656395
3196.0,-0.25552958919755925
3200.0,-0.314938716043602
3204.0,-0.2577483316722268
3208.0,-0.18576961772424602
3212.0,-0.12817851304601544
3216.0,-0.07388109633846203
3220.0,-0.0375812772774329
3224.0,-0.05381300188893863
3228.0,-0.039418484797903094
3232.0,-0.03119779005592834
3236.0,-0.05353101287011114
3240.0,-0.04536167540241933
3244.0,-0.02002122945048087
3248.0,-0.03313852284468156
3252.0,-0.02859802557769589
3256.0,-0.03806894591659872
3260.0,-0.03040681543314409
3264.0,-0.020137627615576203
3268.0,-0.04721188315355816
3272.0,-0.002720458136337164
3276.0,-0.005732387675902185
3280.0,-0.009030115624866832
3284.0,-0.006940482130314756
3288.0,-0.011015772211180018
3292.0,-0.0044325799352168925
3296.0,-0.0003549906972894739
3300.0,-0.0015467623271337178
3304.0,0.0508293329579318
3308.0,0.05208207609417204
3312.0,0.08052083006517402
3316.0,0.09051564464020258
3320.0,0.0942138117937461
3324.0,0.15756301514681811
3328.0,0.16837655425592413
3332.0,0.18698638902495637
3336.0,0.19226185869165266
3340.0,0.2130955384998215
3344.0,0.23728588465185368
3348.0,0.24739712196362745
3352.0,0.2815690383312076
3356.0,0.2759251457721443
3360.0,0.2779610153565915
3364.0,0.2959551313842402
3368.0,0.29591563804793847
3372.0,0.3019908241488569
3376.0,0.3175453719230865
3380.0,0.3094214826916613
3384.0,0.3153090287853812
3388.0,0.3285525974286559
3392.0,0.3215365067066509
3396.0,0.30193466050119117
3400.0,0.27641116546986966
3404.0,0.2842411300629776
3408.0,0.25592479761928094
3412.0,0.24658026467179955
3416.0,0.23544559181036695
3420.0,0.21822790535651698
3424.0,0.2021005747856952
3428.0,0.17949961702387507
3432.0,0.1520843157171382
3436.0,0.14307827687748517
3440.0,0.1265933794323061
3444.0,0.07669435168643929
3448.0,0.07269813863363728
3452.0,0.05655915409805154
3456.0,0.034838212906738886
3460.0,-0.011753425762348384
3464.0,0.008247276980108378
3468.0,0.007154782844735149
3472.0,-0.006039138392869728
3476.0,0.005187555043362161
3480.0,-0.00546120109960216
3484.0,-0.003178894381468634
3488.0,-0.015074465228633148
3492.0,0.014355491949168178
3496.0,0.005099115341548353
3500.0,-0.0037180363847001707
3504.0,0.009689840367148143
3508.0,0.015630329048612102
3512.0,-0.013722374119877288
3516.0,-0.002027665585051789
3520.0,0.011303347102146529
3524.0,0.004873073806312842
3528.0,-0.006581220744451627
3532.0,-0.0018034327971606552
3536.0,0.00428928308735829
3540.0,-0.0073511701017989215
3544.0,-0.0068585576503786
3548.0,0.010167899449288665
3552.0,-0.012412576626240002
3556.0,0.00011918586136180121
3560.0,-0.0024151045136927805
3564.0,-3.410717341741087e-05
3568.0,0.015221927766873113
3572.0,-0.009255211211198901
3576.0,-0.012829260748721876
3580.0,9.56301982545207e-06
3584.0,-0.001058632304605792
3588.0,-0.0025589386110279584
3592.0,-0.012365243884753154
3596.0,-0.0006138895379778906
3600.0,0.010732280527177583
3604.0,-0.0018405775910267687
3608.0,1.9935147275047887e-06
3612.0,-0.013057500469414356
3616.0,-0.00020817507801719457
3620.0,0.002041332167691338
3624.0,-0.0061229401327007275
3628.0,-0.023709493321097924
3632.0,-0.004307495105830584
3636.0,-0.016223524201778475
3640.0,-0.0018003271375560221
3644.0,-0.006733455182582169
3648.0,-0.008244286126613048
3652.0,0.003423005651124774
3656.0,-0.013219531132981677
3660.0,0.01121104528269987
3664.0,0.012348582248359604
3668.0,0.013603543970127682
3672.0,-0.004598007609195232
3676.0,-0.012301640084834952
3680.0,-0.001333155219120753
3684.0,0.009284068716357185
3688.0,-0.004639012706139839
3692.0,0.0015129387926355825
3696.0,-0.0057383170511064495
3700.0,0.004080224516773228
3704.0,-0.004082378920885795
3708.0,0.012285919245214574
3712.0,0.011037929319447219
3716.0,0.01598647293957065
3720.0,-0.013304643855454408
3724.0,-0.002847027589086018
3728.0,0.006764849536010598
3732.0,0.004596643649447794
3736.0,0.006039206777415289
3740.0,-0.0030994227230468547
3744.0,0.03266954263888558
3748.0,0.08248772382922934
3752.0,0.09072511930399074
3756.0,0.1195770334419021
3760.0,0.14070512355170803
3764.0,0.171246773856081
3768.0,0.19347732754538002
3772.0,0.22108367713658217
3776.0,0.22886526386261355
3780.0,0.23379518976374242
3784.0,0.23948900351359875
3788.0,0.24178121978469316
3792.0,0.2306313719892466
3796.0,0.2319097906032222
3800.0,0.2217360437262537
3804.0,0.21805262977140957
3808.0,0.21779539679805376
3812.0,0.1801835127233268
3816.0,0.16356285867825357
3820.0,0.14729389347144473
3824.0,0.11804810733314414
3828.0,0.05862289204418705
3832.0,0.06298871174809802
3836.0,0.02611850892723178
3840.0,0.0014837054467526116
3844.0,-0.011099754412007192
3848.0,-0.008630423377906067
3852.0,-0.016931153361320977
3856.0,0.012604217561263413
3860.0,0.010136265954735532
3864.0,-0.0013228770786886694
3868.0,0.002034221031460893
3872.0,0.008518732398188402
3876.0,-0.007423985023493325
3880.0,-0.007110935141524278
3884.0,-0.04393995231031801
3888.0,-0.08588663536312027
3892.0,-0.10834232315102352
3896.0,-0.14418112354012033
3900.0,-0.0030480273196451767
3904.0,0.10444362294716233
3908.0,0.19439778921574075
3912.0,0.2986024429009871
3916.0,0.3939675035398497
3920.0,0.46669269228691684
3924.0,0.5842966413114972
3928.0,0.6833936108207177
3932.0,0.7936251085274502
3936.0,0.889377733497068
3940.0,0.9733616014244552
3944.0,0.8751076129676753
3948.0,0.7827639595536618
3952.0,0.6910903215210589
3956.0,0.5821174023653527
3960.0,0.48424507488549035
3964.0,0.3971011982307425
3968.0,0.28508723687740434
3972.0,0.19949279011018334
3976.0,0.10880859516338383
3980.0,-0.008166204306757659
3984.0,-0.06203012089229791
3988.0,-0.10883620082478092
3992.0,-0.17789213742447774
3996.0,-0.23049511437498238
4000.0,-0.2952401148996082
4004.0,-0.21363364450298886
4008.0,-0.17640780863510744
4012.0,-0.12652749034418823
4016.0,-0.06777353792349372
4020.0,-0.04296543639401505
4024.0,-0.046534361948580676
4028.0,-0.04282778244897484
4032.0,-0.04180946014772522
4036.0,-0.044359579297094366
4040.0,-0.018939680340740832
4044.0,-0.029983697568314892
4048.0,-0.04323999266766304
4052.0,-0.018374059722278936
4056.0,-0.025983084200772073
4060.0,-0.026128875225221886
4064.0,-0.01643607745641908
4068.0,-0.017507922562949804
4072.0,-0.011961833413371942
4076.0,-0.02412983782699713
4080.0,-0.012976354262838675
4084.0,-0.0009458845181192378
4088.0,-0.0006258105411849051
4092.0,0.011397158488363673
4096.0,0.002064748412446392
4100.0,0.007023477095121021
4104.0,0.04996743952081295
4108.0,0.04780083016882571
4112.0,0.05305316204792425
4116.0,0.09976980868934346
4120.0,0.1211895984438564
4124.0,0.1486426729187623
4128.0,0.15596833067614915
4132.0,0.16008330567159537
4136.0,0.170484938625759
4140.0,0.20096862899211484
4144.0,0.21362016400633774
4148.0,0.22712631699013194
4152.0,0.25885846059893575
4156.0,0.27111122296251167
4160.0,0.27004692234756067
4164.0,0.27578918540545966
4168.0,0.27582722411434535
4172.0,0.2784033570049723
4176.0,0.31117385142922127
4180.0,0.273463385792289
4184.0,0.3239006827860609
4188.0,0.2870269382213179
4192.0,0.30011453004274863
4196.0,0.2762807811108506
4200.0,0.26755899245659753
4204.0,0.24471125666292237
4208.0,0.24799572186315022
4212.0,0.24668442407501542
4216.0,0.22049706487416174
4220.0,0.1842208020923318
4224.0,0.17716575678306856
4228.0,0.16987076112241972
4232.0,0.14639922145231593
4236.0,0.11506073995041796
4240.0,0.11553178606852361
4244.0,0.0908111062080116
4248.0,0.06908359324092733
4252.0,0.05080050513196585
4256.0,0.029511618616416362
4260.0,-0.005271956210537723
4264.0,0.0030477400362657094
4268.0,0.0011818191897873978
4272.0,0.005128703826721941
4276.0,-0.0001738891559497115
4280.0,-0.0019812531156115933
4284.0,-0.003961637244276605
4288.0,-0.006157965047702836
4292.0,-0.009375945793158681
4296.0,0.0046662037737889754
4300.0,-0.0001303585069048653
4304.0,0.004885810695680968
4308.0,-0.0047283778300419264
4312.0,-0.015410795096133047
4316.0,0.00095974372027169
4320.0,-0.00014409594110794275
4324.0,0.007090370354749382
4328.0,0.005291461158686108
4332.0,0.004691425185118337
4336.0,0.02416535194973275
4340.0,-0.005230749035614977
4344.0,-0.013782663394144799
4348.0,-0.0025070774510129747
4352.0,-0.009845074541285843
4356.0,-0.0008134732212576371
4360.0,0.007794282880761405
4364.0,0.002640404200350542
4368.0,0.009971469270390032
4372.0,0.004529761204513359
4376.0,0.012243649420229546
4380.0,-0.011392731931860092
4384.0,-0.006364557647798758
4388.0,0.009243340677362329
4392.0,-0.0042856333981269356
4396.0,-0.017712131359885933
4400.0,0.001636198271361983
4404.0,-0.007773307062353951
4408.0,0.007597178228334074
4412.0,-0.014580151186062712
4416.0,0.007975173418619853
4420.0,0.0003537230695778483
4424.0,-0.018770682655993673
4428.0,-0.0035321936221804273
4432.0,-0.0009459495122794228
4436.0,0.01166799266090303
4440.0,-0.0011638111592156674
4444.0,-0.015549386409758814
4448.0,0.013150945993825948
4452.0,0.008598947453214665
4456.0,-0.0059042622890054935
4460.0,-0.0023517746830623468
4464.0,-0.007228458449142736
4468.0,-0.006932732899218281
4472.0,0.007329281125057319
4476.0,0.007503353591032775
4480.0,-0.0006679237785995278
4484.0,-0.001405228493245297
4488.0,0.0018311790870897291
4492.0,0.012668146927042075
4496.0,-0.007413643263343747
4500.0,-0.00848456608219111
4504.0,0.01107288316100168
4508.0,-0.02122655915663577
4512.0,0.005635671896052526
4516.0,-0.006962146822913338
4520.0,-0.004488503576171334
4524.0,-0.015241847254987383
4528.0,-0.0018962587596222686
4532.0,0.017831859379984383
4536.0,-0.005307688716103566
4540.0,-0.0010728070972717914
4544.0,0.033550382414553666
4548.0,0.07724523033949932
4552.0,0.09173256862349202
4556.0,0.10192040226203422
4560.0,0.1392455906869922
4564.0,0.16568915160323158
4568.0,0.18578280391017096
4572.0,0.19469581272964528
4576.0,0.20902840915907847
4580.0,0.21698640736177247
4584.0,0.24995331396729006
4588.0,0.25591098371476256
4592.0,0.23119476908584286
4596.0,0.25974824102959465
4600.0,0.23875059533117673
4604.0,0.2147819219009625
4608.0,0.2177953596993684
4612.0,0.18372272230786413
4616.0,0.16490570172769276
4620.0,0.1540013570299916
4624.0,0.12639755406807346
4628.0,0.08394505068870857
4632.0,0.06073650866366373
4636.0,0.020956292233841867
4640.0,-0.012725003236304454
4644.0,0.0005537163843785576
4648.0,0.002787677876721209
4652.0,-0.00261944868762714
4656.0,0.005098082628644655
4660.0,-0.008378262957986406
4664.0,5.997251731327211e-05
4668.0,0.009609976121400517
4672.0,0.0022003163149863824
4676.0,0.014654371875052486
4680.0,-0.0004027129999818158
4684.0,-0.03223444116320204
4688.0,-0.07232590518111483
4692.0,-0.12028523889421615
4696.0,-0.15958603172775104
4700.0,0.002156989429365501
4704.0,0.10265501594789887
4708.0,0.19286589723400052
4712.0,0.2875234021733808
4716.0,0.38860984674916316
4720.0,0.48767463799439387
4724.0,0.5870933759388989
4728.0,0.6670811789148245
4732.0,0.7858266644433541
4736.0,0.8614634577175797
4740.0,0.9692530338918903
4744.0,0.8750300657262935
4748.0,0.767499441125653
4752.0,0.6758070651547765
4756.0,0.5790405228349094
4760.0,0.46403861325474904
4764.0,0.38524892719286213
4768.0,0.30284374628210564
4772.0,0.19384061585483242
4776.0,0.11115782923194681
4780.0,0.0015810871904442675
4784.0,-0.05882017066506164
4788.0,-0.1154228972333188
4792.0,-0.1677786736983431
4796.0,-0.2321081496234989
4800.0,-0.31090181430256536
4804.0,-0.2315575388246929
4808.0,-0.17412575179737
4812.0,-0.11152204776781123
4816.0,-0.03233409042834871
4820.0,-0.026349967333050686
4824.0,-0.053538325855383484
4828.0,-0.04945604216673277
4832.0,-0.023786988034027675
4836.0,-0.03385117415674643
4840.0,-0.036339479774827675
4844.0,-0.03886687366819808
4848.0,-0.03161224687671844
4852.0,-0.03440728379400503
4856.0,-0.025021127892315143
4860.0,-0.017375119252697465
4864.0,-0.036240483549286655
4868.0,-0.017008797722129057
4872.0,-0.030652249693959736
4876.0,-0.004946467294879272
4880.0,-0.019922469529763565
4884.0,0.006463564491523459
4888.0,0.0037706179402195814
4892.0,-0.029569529460197103
4896.0,0.01706224297188082
4900.0,0.00656099275421024
4904.0,0.032928100261394144
4908.0,0.040152442485859315
4912.0,0.0472102660464275
4916.0,0.0837811604296183
4920.0,0.11398426397345224
4924.0,0.12539339574737615
4928.0,0.16420214228262853
4932.0,0.17383313268365955
4936.0,0.2074122040598274
4940.0,0.19105341883969051
4944.0,0.19908591575865478
4948.0,0.2229539962491426
4952.0,0.27147111988420036
4956.0,0.25459269814857927
4960.0,0.2546423866781973
4964.0,0.267590076482169
4968.0,0.28661790918767344
4972.0,0.2909878174156661
4976.0,0.29478624290221694
4980.0,0.28800106162065153
4984.0,0.27609419768532734
4988.0,0.27326057986022306
4992.0,0.2688134421767229
4996.0,0.2650840515883743
5000.0,0.2797229337320354
5004.0,0.2524011833165583
5008.0,0.25844123181633255
5012.0,0.25769219686201605
5016.0,0.23071414825910555
5020.0,0.21000763375541873
5024.0,0.18912226421187114
5028.0,0.15029409002731295
5032.0,0.16094836161473067
5036.0,0.13736875442735488
5040.0,0.10609500674810997
5044.0,0.08130168349629958
5048.0,0.06644451201015449
5052.0,0.036726132096583694
5056.0,0.028757083828726368
5060.0,-0.004469369734367822
5064.0,-0.01174060207394968
5068.0,-0.01385227903798088
5072.0,-0.005863368799873489
5076.0,-0.0011757844697854616
5080.0,-0.010858883549701253
5084.0,0.0006037764260864247
5088.0,0.0070332262291445445
5092.0,0.0073074640638864565
5096.0,0.006436333396772568
5100.0,0.007933599854874908
5104.0,0.009954973732954323
5108.0,-0.011926872701795335
5112.0,0.01701169780753644
5116.0,0.020154754079300233
5120.0,-0.009740989718761167
5124.0,-0.01066909166265283
5128.0,0.02178271723230686
5132.0,-0.00377407243552527
5136.0,0.004747667289820975
5140.0,0.011944124370541171
5144.0,-0.013788125215711662
5148.0,-0.004594047806523111
5152.0,-0.0028360822164545892
5156.0,0.0005734304425993154
5160.0,-0.005439009439199839
5164.0,0.004211979108002538
5168.0,-0.007949531927511634
5172.0,-0.01976546092537698
5176.0,0.01591887336031363
5180.0,-0.016045588935267016
5184.0,-0.00888081206446237
5188.0,-0.00640526786314786
5192.0,-0.012202837007927632
5196.0,0.005253117102925645
5200.0,-0.004470151311985671
5204.0,-0.0053970604596256175
5208.0,0.000363326064134766
5212.0,-0.009726156464281578
5216.0,-0.007314856218920924
5220.0,0.0041370935496285715
5224.0,0.014757839173592498
5228.0,-0.0025500140876991767
5232.0,0.011702978673025317
5236.0,0.014753794689342748
5240.0,-0.002238308840088624
5244.0,0.002405068434018807
5248.0,0.012034283735047191
5252.0,-0.005019585789200587
5256.0,0.019054847198475045
5260.0,0.0005753248507409228
5264.0,-0.011795935172183879
5268.0,-0.0009835783280626267
5272.0,-0.00991304508658679
5276.0,-0.0013963609460361833
5280.0,-0.005066717013097931
5284.0,-0.0036328906528554734
5288.0,-0.019522094707708906
5292.0,-0.011109482638542405
5296.0,-0.009554912298183813
5300.0,0.003184810643432924
5304.0,-0.007314984900596368
5308.0,-0.002170550650659378
5312.0,-0.016368579537946206
5316.0,0.001227442449135337
5320.0,0.01574154056727292
5324.0,0.014668631559490141
5328.0,0.00017318249177043999
5332.0,-0.018759558943153967
5336.0,-0.0038407359238457916
5340.0,0.027440813284665657
5344.0,0.03956386549625464
5348.0,0.053158637675388094
5352.0,0.10115148297030552
5356.0,0.11399302704179727
5360.0,0.1514545503203047
5364.0,0.16863233209127468
5368.0,0.20135559909203932
5372.0,0.22483474013769655
5376.0,0.23488553075114713
5380.0,0.23612593093474454
5384.0,0.27475766028985976
5388.0,0.2582021593176801
5392.0,0.2671118424850947
5396.0,0.25511542129228054
5400.0,0.24011761513307645
5404.0,0.22555012088919008
5408.0,0.21484247733572284
5412.0,0.18725788098572166
5416.0,0.1683413574133424
5420.0,0.14276751980399893
5424.0,0.12377438447217465
5428.0,0.10406154749477156
5432.0,0.04421139139885755
5436.0,0.023542913055457047
5440.0,0.007440447578467957
5444.0,0.0046257231604182845
5448.0,0.005269637058848329
5452.0,0.0031699419898239805
5456.0,0.020561143594301324
5460.0,0.0067448804428229606
5464.0,0.013882027562607457
5468.0,-0.00552116248530404
5472.0,-0.004290833055830355
5476.0,0.004708380161570015
5480.0,-0.020143421887787328
5484.0,-0.03783709749053973
5488.0,-0.07153749613958768
5492.0,-0.11281801776432288
5496.0,-0.15724083340515202
5500.0,0.017492515579286837
5504.0,0.11430869271364558
5508.0,0.19873468227425028
5512.0,0.31314951576063205
5516.0,0.4028030800822615
5520.0,0.5091191383071887
5524.0,0.6146008594939221
5528.0,0.713421626108072
5532.0,0.8198349531535076
5536.0,0.9041602864216732
5540.0,1.0325366000469987
5544.0,0.9293558302819621
5548.0,0.8090729845058869
5552.0,0.6992490096788931
5556.0,0.6089981307709761
5560.0,0.5039462304383439
5564.0,0.4190016863840639
5568.0,0.3293906673948747
5572.0,0.20927118426224378
5576.0,0.09898787696620803
5580.0,-0.006272885890996099
5584.0,-0.050184363104842505
5588.0,-0.1183885447888729
5592.0,-0.1859078151517832
5596.0,-0.24284526865413006
5600.0,-0.30870957851666947
5604.0,-0.25471160033080725
5608.0,-0.1931811793784598
5612.0,-0.11868333184930191
5616.0,-0.06023533517367997
5620.0,-0.05545288780984755
5624.0,-0.044112766539801146
5628.0,-0.051927370489907594
5632.0,-0.043787229148219656
5636.0,-0.033980655166891076
5640.0,-0.05290206756148271
5644.0,-0.03251296432801663
5648.0,-0.05624130940505624
5652.0,-0.027214481583193017
5656.0,-0.013044375915319421
5660.0,-0.02486030697483481
5664.0,-0.020685191810166658
5668.0,-0.03664056660101126
5672.0,-0.008249023580628017
5676.0,-0.0020251282360589807
5680.0,-0.0009253343244235747
5684.0,-0.007302141971040339
5688.0,-0.003556721810561992
5692.0,0.0028224183238908292
5696.0,-0.01199734743987097
5700.0,0.027077298209531534
5704.0,0.027017727813078166
5708.0,0.051093197937442374
5712.0,0.047197708861018116
5716.0,0.09332205308221364
5720.0,0.11520623724096866
5724.0,0.15154796735910422
5728.0,0.16413452783685864
5732.0,0.1754253255038974
5736.0,0.20067584022443763
5740.0,0.20570760259187806
5744.0,0.22595954453525968
5748.0,0.2611233888425861
5752.0,0.24611893765054002
5756.0,0.27887228101313893
5760.0,0.28312553738659907
5764.0,0.2901402772615463
5768.0,0.30601137889073043
5772.0,0.2927329436462209
5776.0,0.28444764446061577
5780.0,0.29603804245555104
5784.0,0.3091198120616781
5788.0,0.291686596502613
5792.0,0.31281215066122686
5796.0,0.28943609843177776
5800.0,0.2774288250092102
5804.0,0.27510175888032457
5808.0,0.24029651383689066
5812.0,0.2475560098141562
5816.0,0.23888339526520228
5820.0,0.2219575938623584
5824.0,0.18390629424680036
5828.0,0.16410789890503258
5832.0,0.16985500813271526
5836.0,0.13129375106645877
5840.0,0.1184329113541983
5844.0,0.10106380469167613
5848.0,0.06030221885133761
5852.0,0.04827285673855594
5856.0,0.013718334072399916
5860.0,0.00014981192254973901
5864.0,0.011307010373436788
5868.0,0.006366178925233724
5872.0,0.00783609371220326
5876.0,0.006289642661492524
5880.0,0.0020875134437246994
5884.0,0.01608627648274917
5888.0,-0.010266007203782049
5892.0,0.010859496441190317
5896.0,0.03080557180101395
5900.0,0.0014624238928168422
5904.0,0.002870359825091685
5908.0,-0.011799941082817346
5912.0,0.012334123534922215
5916.0,0.020063520663567917
5920.0,0.004903877304823034
5924.0,0.005105287064077594
5928.0,0.005710139026066088
5932.0,0.002820451211685876
5936.0,0.00545533923874563
5940.0,0.010044066005106139
5944.0,-0.00924106558896922
5948.0,0.010642879136089512
5952.0,-0.0058158442702786585
5956.0,-0.006640029666062541
5960.0,-0.007316266371486473
5964.0,0.0019590523994164567
5968.0,-0.0027370530266293326
5972.0,-0.003632337515779295
5976.0,0.0014662261358754972
5980.0,-0.010741448674136185
5984.0,-0.0020528882933237343
5988.0,0.007421453513327865
5992.0,-0.003497829103152196
5996.0,-0.018924911134950834
6000.0,0.012151035917981608
6004.0,-0.010904486931104991
6008.0,-0.003573952916785977
6012.0,-0.013057399602451052
6016.0,0.0018937869311780606
6020.0,0.018995545252307556
6024.0,-0.004874499088843427
6028.0,0.016889720053732852
6032.0,0.00977796018569798
6036.0,-0.0033276806218727273
6040.0,-0.0020790648560639028
6044.0,-0.003955665088525677
6048.0,-0.004981620810097357
6052.0,0.017335577591939683
6056.0,0.007316569645414684
6060.0,-0.014471091448459346
6064.0,3.931205591360303e-05
6068.0,0.007624661276071031
6072.0,-0.014888776872218366
6076.0,-0.0030705208692004553
6080.0,0.0008029218673534524
6084.0,0.013406825803127779
6088.0,-0.01006942184923931
6092.0,0.006697476439914195
6096.0,-0.002267952785662725
6100.0,0.005093834031130281
6104.0,0.0009258760176745053
6108.0,-0.00982624537712522
6112.0,-0.0026270540265632696
6116.0,-0.017580263159236248
6120.0,0.010598275697959661
6124.0,0.0036743177163994314
6128.0,0.00845367400036242
6132.0,-0.007668352270120751
6136.0,0.0033708670356976406
6140.0,0.005789560393213303
6144.0,0.016401788727599606
6148.0,0.07149195128059954
6152.0,0.07120403152856747
6156.0,0.11910930182256262
6160.0,0.14601972885073877
6164.0,0.1706608381735021
6168.0,0.17821494615094902
6172.0,0.2052474072118758
6176.0,0.22427322435358182
6180.0,0.25223182954430345
6184.0,0.24314888157197834
6188.0,0.253194387419347
6192.0,0.2629391110951428
6196.0,0.23753134311751253
6200.0,0.23446278389608127
6204.0,0.23834749270710157
6208.0,0.21154272409992855
6212.0,0.20210908325082041
6216.0,0.16270808649791563
6220.0,0.13552151619017272
6224.0,0.12252026758453657
6228.0,0.08292474306475608
6232.0,0.061557879074290445
6236.0,0.03456080896895189
6240.0,0.00231651068572658
6244.0,-0.006964822674001411
6248.0,-0.00023402001565112318
6252.0,0.005224247893092931
6256.0,-0.017989775072137112
6260.0,0.0057039203663818
6264.0,0.004921083535298737
6268.0,-0.00017898909033793362
6272.0,-0.008475508380548431
6276.0,-0.0033750452664260263
6280.0,0.010753884883036517
6284.0,-0.02414489942946261
6288.0,-0.06788899107665983
6292.0,-0.12405210660434088
6296.0,-0.13190005497676308
6300.0,-0.0019393819419584097
6304.0,0.09795668293600687
6308.0,0.2106351428756939
6312.0,0.30094185071075785
6316.0,0.3937677805543762
6320.0,0.5220390563109659
6324.0,0.6005962101977312
6328.0,0.6992913828020317
6332.0,0.8115772488660945
6336.0,0.8860085598976409
6340.0,1.0172360386060526
6344.0,0.8909327065998232
6348.0,0.7905767769973612
6352.0,0.7121072599209533
6356.0,0.5934087779105941
6360.0,0.5067426896274683
6364.0,0.3793045525817706
6368.0,0.3063264229552579
6372.0,0.20207301682551543
6376.0,0.10264104674240825
6380.0,0.0013726268579903232
6384.0,-0.06103971454093376
6388.0,-0.13259127515074193
6392.0,-0.16980673761995888
6396.0,-0.25026385281959895
6400.0,-0.2960679909401571
6404.0,-0.23305083666846005
6408.0,-0.17474697179517082
6412.0,-0.129085012609762
6416.0,-0.05013105944424358
6420.0,-0.05336650102550643
6424.0,-0.05709653941705042
6428.0,-0.06611092252914082
6432.0,-0.03407215622456426
6436.0,-0.028557911053236733
6440.0,-0.019817044943529347
6444.0,-0.05022186623681369
6448.0,-0.025106274234151873
6452.0,-0.017809765109701614
6456.0,-0.026842022046004586
6460.0,-0.021074017124503998
6464.0,-0.028715436567250986
6468.0,-0.030951088584704415
6472.0,-0.01149903942636094
6476.0,-0.02450081503651476
6480.0,-0.02042851351096252
6484.0,-0.021607501293768427
6488.0,-0.02469323359870482
6492.0,-0.007686956314468259
6496.0,-0.0014688169660723662
6500.0,-0.01431751932102071
6504.0,0.026950449782682323
6508.0,0.04840082014388587
6512.0,0.06704159647255323
6516.0,0.09570164136033919
6520.0,0.12053304218906395
6524.0,0.13051515919813408
6528.0,0.17068636489715017
6532.0,0.17629757550059655
6536.0,0.19085478461227046
6540.0,0.22180301534055796
6544.0,0.2230182528932243
6548.0,0.24057841638334274
6552.0,0.2774023116597477
6556.0,0.254159200820066
6560.0,0.2858711326379567
6564.0,0.2989999691568578
6568.0,0.2825449293804335
6572.0,0.3097385799155011
6576.0,0.2965267074858883
6580.0,0.3043849059533802
6584.0,0.29703427833202006
6588.0,0.3021105776273744
6592.0,0.29970728468240354
6596.0,0.2873159568372021
6600.0,0.28781492210017307
6604.0,0.25772738378351573
6608.0,0.24734526423804337
6612.0,0.2517218290773884
6616.0,0.22047165543366
6620.0,0.19531246363037955
6624.0,0.20583223570347392
6628.0,0.1692951350931526
6632.0,0.176531643499163
6636.0,0.14592234927641234
6640.0,0.1012739714676923
6644.0,0.09836004260159321
6648.0,0.076982781341277
6652.0,0.05484600117611108
6656.0,0.018873493519175416
6660.0,-0.009765881741896987
6664.0,0.0035637601503384587
6668.0,0.004563084212604861
6672.0,0.01205009174116562
6676.0,-0.008946157721450172
6680.0,-0.005972157479133758
6684.0,0.00018403585250518492
6688.0,-0.0033510197008945744
6692.0,-0.003594868205741351
6696.0,-0.0034333497151152665
6700.0,-0.008592995122891751
6704.0,-0.009493352532022513
6708.0,-0.009029977044009242
6712.0,-0.027046533872350707
6716.0,0.009176718699466537
6720.0,0.0055960946519446044
6724.0,-0.004382382012013399
6728.0,0.013813730673596893
6732.0,-0.005083698981152858
6736.0,0.0067288651833544945
6740.0,0.0051097455840278415
6744.0,0.013342610657501712
6748.0,0.01581061701552025
6752.0,-0.006605799383725371
6756.0,-0.0036703580910608254
6760.0,0.0002687815823573903
6764.0,0.0049753459921097745
6768.0,0.006240982339174134
6772.0,0.003538248280983555
6776.0,-0.0035620891252627625
6780.0,-0.005713839948682481
6784.0,0.009819764587052594
6788.0,-0.002578208243507602
6792.0,0.014032314060329683
6796.0,0.0029050055912453426
6800.0,0.007426652728132005
6804.0,-0.006348724463964064
6808.0,0.0027544998119317494
6812.0,0.008790149075467426
6816.0,-0.01745320525739721
6820.0,0.004188108693001945
6824.0,0.015426962783328453
6828.0,-0.0077198824892380545
6832.0,-0.004692446554690547
6836.0,0.0111807304599064
6840.0,-0.0015381676406127987
6844.0,-0.00678627561938962
6848.0,0.01027099081462233
6852.0,0.013059307436093164
6856.0,-0.0030054934814828195
6860.0,-0.011423643487519862
6864.0,-0.006825549551550085
6868.0,0.014531848189766345
6872.0,0.022616549857338422
6876.0,-0.002265679783251418
6880.0,-0.005472059059386857
6884.0,0.020291686159217864
6888.0,0.012963724367888112
6892.0,0.01991307728639387
6896.0,0.010870507075904517
6900.0,0.004424304486947343
6904.0,0.001874561101469101
6908.0,-0.0029112794351384397
6912.0,0.00044302644323720915
6916.0,-0.003997491292159718
6920.0,0.00554987584549769
6924.0,-0.008589499089764956
6928.0,0.00036798192196229397
6932.0,-0.012906273333846226
6936.0,0.014229550971167829
6940.0,0.0019333552055063252
6944.0,0.03502200239351865
6948.0,0.05920630072821598
6952.0,0.09866138810976607
6956.0,0.13530206299408934
6960.0,0.1586298495250005
6964.0,0.17984963562737455
6968.0,0.1931112808917687
6972.0,0.21790325174499234
6976.0,0.23773598201595753
6980.0,0.24808018172398158
6984.0,0.2672900661913659
6988.0,0.25063255709085136
6992.0,0.24626155825884719
6996.0,0.277920334598681
7000.0,0.24335416014175976
7004.0,0.23209962287599645
7008.0,0.21774282134244313
7012.0,0.1917959233652275
7016.0,0.18051337754605054
7020.0,0.15404585764122164
7024.0,0.10735762836362578
7028.0,0.09203988598622229
7032.0,0.04984475736142184
7036.0,0.03937563320353093
7040.0,-0.002236787480411902
7044.0,0.00516423553407622
7048.0,-0.002017235719095138
7052.0,-0.009119696430303074
7056.0,0.014245678993787427
7060.0,0.0033858912302562826
7064.0,0.0047122599091125915
7068.0,-0.005316820429483116
7072.0,-0.013872871355028737
7076.0,0.003188776006270929
7080.0,-0.008019848603069583
7084.0,-0.04555809547489183
7088.0,-0.0896492419459563
7092.0,-0.12921797023932072
7096.0,-0.16998231208575154
7100.0,-0.011215610910868574
7104.0,0.0949222116410474
7108.0,0.209636988993161
7112.0,0.3343487879508961
7116.0,0.4123567720496994
7120.0,0.5173183564276898
7124.0,0.6270745524598725
7128.0,0.708030291385888
7132.0,0.8128132827533622
7136.0,0.9000380617322593
7140.0,1.023180117867357
7144.0,0.9306331483459562
7148.0,0.8203644149402612
7152.0,0.7223243266730066
7156.0,0.6113797760651603
7160.0,0.5530546331677084
7164.0,0.4036913194195399
7168.0,0.3178134187189504
7172.0,0.20637559260958177
7176.0,0.09144916621801455
7180.0,-0.015089471197910797
7184.0,-0.05836894057976251
7188.0,-0.1289351164252556
7192.0,-0.19762150323394304
7196.0,-0.26019668437028254
7200.0,-0.3054561179823446
7204.0,-0.23275795870704313
7208.0,-0.18165929277082027
7212.0,-0.14798122443931744
7216.0,-0.05208066276810847
7220.0,-0.05833120340971882
7224.0,-0.06749469493632845
7228.0,-0.048212338687724336
7232.0,-0.03054056878664943
7236.0,-0.02981892070384276
7240.0,-0.03802386709277222
7244.0,-0.04041491655667338
7248.0,-0.024469993625302347
7252.0,-0.0310698358499266
7256.0,-0.04077196295675907
7260.0,-0.03766717033755033
7264.0,-0.00626123235258182
7268.0,-0.02803996579804393
7272.0,0.000668607639738205
7276.0,0.0010866685973812545
7280.0,-0.0027978710659818367
7284.0,-0.011136328619371604
7288.0,-0.0026493507925676877
7292.0,-0.013982010963589059
7296.0,-0.006044382455868495
7300.0,0.008138692111103494
7304.0,0.02991970350326946
7308.0,0.05606637725023785
7312.0,0.059477002033108815
7316.0,0.09859302346831823
7320.0,0.1072484817845367
7324.0,0.13792815643535572
7328.0,0.17102618627869035
7332.0,0.1973309030303319
7336.0,0.19446175806554847
7340.0,0.22056469430315714
7344.0,0.2373589031212375
7348.0,0.2522177451761938
7352.0,0.27939622840829176
7356.0,0.2668092894230479
7360.0,0.28116908792435646
7364.0,0.3009317149023691
7368.0,0.3031970126120633
7372.0,0.3088377964870201
7376.0,0.31386788422061973
7380.0,0.3087520178214112
7384.0,0.3056975795881294
7388.0,0.3018158298053694
7392.0,0.29482033307502487
7396.0,0.28873111210143076
7400.0,0.29593696394984054
7404.0,0.28169117705200525
7408.0,0.2718292489108624
7412.0,0.25081507844896733
7416.0,0.23249849241733178
7420.0,0.22535224190891348
7424.0,0.1986164428507383
7428.0,0.16954047822156712
7432.0,0.15909947647760586
7436.0,0.15183670419102901
7440.0,0.10031067397626947
7444.0,0.09929920551113043
7448.0,0.08177473461271634
7452.0,0.02782439253849397
7456.0,0.01230877268267276
7460.0,-0.00944380395569213
7464.0,0.004029957476043638
7468.0,-0.014391142385300176
7472.0,-0.004728252784268066
7476.0,-0.001937633739964704
7480.0,0.00622996718039509
7484.0,0.0023810033348111203
7488.0,0.0008849300399060805
7492.0,0.001595421737276054
7496.0,-0.0022139155541629645
7500.0,0.012378616882061743
7504.0,0.0024017635621358686
7508.0,-0.00015237721330379887
7512.0,0.009265955163533613
7516.0,0.008197046089634827
7520.0,-0.007428430779432957
7524.0,-0.005690688134048446
7528.0,0.019243538075476956
7532.0,-0.014207087137299694
7536.0,0.0035749154983619924
7540.0,-0.006419107193125082
7544.0,0.006198745675507178
7548.0,0.011261549273398497
7552.0,0.014273838523593013
7556.0,-0.005708553243025133
7560.0,-0.01769752535514924
7564.0,-0.01976343741924921
7568.0,-0.0012654361391940168
7572.0,0.0063665121592170896
7576.0,0.003441663962599593
7580.0,-0.013097822609005825
7584.0,-0.008010420771747764
7588.0,0.010256582141841455
7592.0,0.016313732337136354
7596.0,-0.004591015514267931
7600.0,0.002838753361435416
7604.0,0.0030206003638897877
7608.0,-0.008196905237649403
7612.0,0.021332908622806825
7616.0,0.012282257291657977
7620.0,-0.010867947123829366
7624.0,0.002656626811490219
7628.0,-0.009935274391490495
7632.0,-0.015719396329096625
7636.0,0.008559302836692168
7640.0,-0.004210380656889354
7644.0,-0.01788314417152436
7648.0,-0.002902144917983927
7652.0,0.007384563386914589
7656.0,0.007693864757023711
7660.0,-0.007321122259409107
7664.0,-0.016143564119958428
7668.0,-0.012304481578455508
7672.0,0.006731619151379982
7676.0,-0.02045227768298653
7680.0,-0.007412764241243219
7684.0,-0.0020175190006643446
7688.0,0.004038944225448424
7692.0,-0.004565105579592915
7696.0,-0.022388793158673245
7700.0,0.0015772928982827259
7704.0,0.01574962238077086
7708.0,0.0034761094384021143
7712.0,-0.010959760497643726
7716.0,-0.007762977673095558
7720.0,0.002447461160334328
7724.0,0.0028304658495819303
7728.0,-0.01325128799271215
7732.0,0.006145639637294241
7736.0,0.0015785508502559377
7740.0,0.011794143969611695
7744.0,0.03549517882233893
7748.0,0.04940313017604496
7752.0,0.10920539214009162
7756.0,0.12605799073115542
7760.0,0.15870331056486514
7764.0,0.17506120803305658
7768.0,0.21106525064888806
7772.0,0.21172279203890038
7776.0,0.2269048296180265
7780.0,0.22956098913187295
7784.0,0.26904053237365283
7788.0,0.2588498660296472
7792.0,0.2415708042471955
7796.0,0.24568126695805137
7800.0,0.2371939667067604
7804.0,0.2338315821807389
7808.0,0.21505143745168212
7812.0,0.19024041158408372
7816.0,0.1626066800550815
7820.0,0.15797799794790876
7824.0,0.12894547438745207
7828.0,0.09971468740354082
7832.0,0.06607079456403853
7836.0,0.043836139309632524
7840.0,0.010872420027682614
7844.0,-0.0034933610178863907
7848.0,-0.008658257965600697
7852.0,0.016161043078382134
7856.0,0.024717302585835363
7860.0,-0.008615226648908795
7864.0,0.011275032354530349
7868.0,0.003855796642767444
7872.0,0.0012530376906512708
7876.0,0.012403667601204139
7880.0,0.016746288823016316
7884.0,-0.0428372745586095
7888.0,-0.0774858211870871
7892.0,-0.1051100440463752
7896.0,-0.14636946636944803
7900.0,-0.011721329882726441
7904.0,0.11697651180393198
7908.0,0.21576853001939325
7912.0,0.31624538247849066
7916.0,0.4041687590905174
7920.0,0.515507187912532
7924.0,0.6242925459341713
7928.0,0.7283809405956408
7932.0,0.8266662241029973
7936.0,0.930491437310616
7940.0,1.0429789275671406
7944.0,0.9280054756912384
7948.0,0.8345358482007719
7952.0,0.7159207332448382
7956.0,0.6215833986404062
7960.0,0.5175974311824446
7964.0,0.42553216970878016
7968.0,0.3106082503833983
7972.0,0.2043453724221063
7976.0,0.12138468471367372
7980.0,-0.009121182823091803
7984.0,-0.06591207882107489
7988.0,-0.13335611408279774
7992.0,-0.16902377839564228
7996.0,-0.25198866825899807
8000.0,-0.3101841589941906
8004.0,-0.263115242299798
8008.0,-0.1803455006303799
8012.0,-0.11581932489367451
8016.0,-0.0651971970313439
8020.0,-0.041928349177876106
8024.0,-0.04639840364836636
8028.0,-0.059508584682776935
8032.0,-0.03575335796343862
8036.0,-0.038496488179343064
8040.0,-0.03906710330528969
8044.0,-0.03261669922325824
8048.0,-0.032888526717022706
8052.0,-0.011366841145978985
8056.0,-0.027169897697338866
8060.0,-0.03891597607605147
8064.0,-0.023322067505050212
8068.0,-0.01125473302908722
8072.0,-0.02693795121571884
8076.0,-0.02109661907127991
8080.0,-0.008289400579992882
8084.0,-0.01130928816230649
8088.0,0.0036058791309803327
8092.0,-0.006168284473652546
8096.0,-0.013107958092734665
8100.0,-0.027154305897466147
8104.0,0.030467501421415372
8108.0,0.05624992192354598
8112.0,0.08878132265200424
8116.0,0.0781754440181442
8120.0,0.13751623715462852
8124.0,0.1534220988456568
8128.0,0.1648362423797348
8132.0,0.17549821212563174
8136.0,0.19702281501792507
8140.0,0.22273549156395944
8144.0,0.24523218749378342
8148.0,0.25160804432488515
8152.0,0.27168551805120145
8156.0,0.2757107840941973
8160.0,0.28161879861367184
8164.0,0.2829837636402427
8168.0,0.30772091199171614
8172.0,0.30936333586647274
8176.0,0.2905680281612777
8180.0,0.2889260262673538
8184.0,0.30884549011304824
8188.0,0.32452219960746254
8192.0,0.3048520970656339
8196.0,0.31171143033414866
8200.0,0.2802779515791748
8204.0,0.27315419700156823
8208.0,0.2965583083023781
8212.0,0.2447818011840973
8216.0,0.23402930130808947
8220.0,0.22940616994913843
8224.0,0.20138009656796482
8228.0,0.18275158227345273
8232.0,0.18004656508627792
8236.0,0.14626084467503292
8240.0,0.11735902861747781
8244.0,0.0918788170386127
8248.0,0.0648785181500951
8252.0,0.058225919631346365
8256.0,0.011825884254834041
8260.0,0.007646422447365536
8264.0,-0.0014367980830452404
8268.0,-0.020746103804581317
8272.0,0.0038415695770817873
8276.0,0.010997428019980717
8280.0,-0.0026732659195509746
8284.0,0.0032463629717260694
8288.0,-0.015274127050554642
8292.0,-0.0021135340237550845
8296.0,-0.009094202851559013
8300.0,-0.010119606997227599
8304.0,-0.023995630319982718
8308.0,0.016336210991761243
8312.0,-0.006458680361182825
8316.0,-0.008926074285672552
8320.0,-0.012502045977146848
8324.0,-0.01617220430179138
8328.0,0.004893648633271079
8332.0,-0.008294945949595824
8336.0,0.005938587034493922
8340.0,-0.008145020967391416
8344.0,0.004070027521526993
8348.0,0.004663894119575376
8352.0,-0.006679245249265546
8356.0,-0.008682876657252196
8360.0,0.004543031101341056
8364.0,0.011231929607486915
8368.0,-0.004733409695491631
8372.0,-0.006494720163214036
8376.0,-0.0009579476538783925
8380.0,0.007013423504101202
8384.0,-0.0032715252513341874
8388.0,0.00402403854073751
8392.0,-0.0033900327671496687
8396.0,-0.013808477665989114
8400.0,-0.016471790016018194
8404.0,-0.013552040448967136
8408.0,0.012596213031971422
8412.0,-0.00535498516907606
8416.0,0.0010111356364062216
8420.0,0.01909110793338014
8424.0,0.00924752457375728
8428.0,0.001821538732544955
8432.0,0.01639329732492568
8436.0,-0.008995616824130075
8440.0,-0.0029770503296500978
8444.0,0.0007198904432837954
8448.0,0.024564889055652375
8452.0,-0.007967324102572663
8456.0,0.0015997355218739823
8460.0,-0.0037026069521102533
8464.0,0.005191807883314481
8468.0,-0.007260549019537976
8472.0,0.008167638513096055
8476.0,-0.01634217019446524
8480.0,0.009891623705688744
8484.0,-0.019500242709610892
8488.0,0.007943792343974658
8492.0,-0.005148504168845106
8496.0,0.0006963296788962705
8500.0,0.006168934748553249
8504.0,0.0026891963845791546
8508.0,-0.008419999829839687
8512.0,0.009889133388245023
8516.0,0.009437089034857935
8520.0,0.009175656638403565
8524.0,-0.002966003997039926
8528.0,-0.010977025004200789
8532.0,-0.01398784532321282
8536.0,-0.014311364883949487
8540.0,-0.006169572940464876
8544.0,0.028689342952068847
8548.0,0.05141805205492482
8552.0,0.10939915923581923
8556.0,0.11680722527283113
8560.0,0.14144175337958262
8564.0,0.17688560679292514
8568.0,0.19011068770005105
8572.0,0.21026891288735905
8576.0,0.218996364014517
8580.0,0.24705132316146416
8584.0,0.25016599383761323
8588.0,0.251159906269869
8592.0,0.2525933258235809
8596.0,0.24760722060587353
8600.0,0.22395926352921555
8604.0,0.24362038226145152
8608.0,0.2022880416983859
8612.0,0.17942020765359087
8616.0,0.16701225297924618
8620.0,0.154830059077781
8624.0,0.1276716754697511
8628.0,0.08953817961859226
8632.0,0.05101689466673223
8636.0,0.024382732534894935
8640.0,-0.012896180209800077
8644.0,-0.011301047516924363
8648.0,0.0013731796005995297
8652.0,-0.012824515142187232
8656.0,-0.0026482692801016463
8660.0,0.008763945561052401
8664.0,0.004577552879261421
8668.0,0.0014603906468289261
8672.0,-0.00015343077667421263
8676.0,-0.010538767404568905
8680.0,-0.00597779118679944
8684.0,-0.052020129478868395
8688.0,-0.09024109637968705
8692.0,-0.12541883673570273
8696.0,-0.1811179771112821
8700.0,-0.02334490599030695
8704.0,0.10251578222743356
8708.0,0.19754267437170314
8712.0,0.29494062239217056
8716.0,0.3945738179058992
8720.0,0.5076264780511431
8724.0,0.6178874913853216
8728.0,0.6996483792030369
8732.0,0.8002101359296183
8736.0,0.8867242865877522
8740.0,0.9955686366849208
8744.0,0.9090604334676756
8748.0,0.7815202688560584
8752.0,0.7022918599181182
8756.0,0.6125548640893975
8760.0,0.47653244018160906
8764.0,0.4023884385725491
8768.0,0.2766291169118112
8772.0,0.19375400402089651
8776.0,0.09753878992568617
8780.0,0.007089002270866059
8784.0,-0.07869852269845987
8788.0,-0.11754584962275316
8792.0,-0.1833280161853848
8796.0,-0.24114190066952623
8800.0,-0.2965888092093624
8804.0,-0.24266498252560068
8808.0,-0.21376969853175576
8812.0,-0.12867553734136453
8816.0,-0.06211381490812411
8820.0,-0.03668888747020814
8824.0,-0.03808700275621336
8828.0,-0.04246835167410903
8832.0,-0.04493345626923623
8836.0,-0.04356339686587643
8840.0,-0.053922570059819305
8844.0,-0.03492287336729169
8848.0,-0.03873930405166534
8852.0,-0.03615721544627079
8856.0,-0.031552866712092655
8860.0,-0.02977725735960686
8864.0,-0.015888391091603372
8868.0,-0.022707170556783264
8872.0,-0.02782117496933019
8876.0,-0.01170208855793892
8880.0,-0.019082704807406856
8884.0,-0.02312599008083027
8888.0,0.0005532782430260575
8892.0,-0.020120701978059968
8896.0,-0.011107627331774565
8900.0,0.0034357444097583957
8904.0,0.015548850830626917
8908.0,0.052934293979812065
8912.0,0.07428223730599463
8916.0,0.10363118671187249
8920.0,0.1129067886367577
8924.0,0.1280340320015824
8928.0,0.15467732818002122
8932.0,0.19990721279285656
8936.0,0.17806198729030787
8940.0,0.2117352290598681
8944.0,0.21799523616432367
8948.0,0.24206150683704292
8952.0,0.2605064876036175
8956.0,0.27137746757841213
8960.0,0.28060246834355884
8964.0,0.2745270999171896
8968.0,0.29790033550096845
8972.0,0.2955106050082698
8976.0,0.28753582381719395
8980.0,0.30192996932996413
8984.0,0.27451399501058055
8988.0,0.283015031288742
8992.0,0.28023626798758655
8996.0,0.2730414574671391
9000.0,0.28247804613377187
9004.0,0.25078430069273394
9008.0,0.26161087061062466
9012.0,0.2301655754231688
9016.0,0.22765745786822997
9020.0,0.20380262568309196
9024.0,0.18631128400892882
9028.0,0.17290887855172984
9032.0,0.14782246245555322
9036.0,0.15258032262520851
9040.0,0.12171447905852428
9044.0,0.08742246283090085
9048.0,0.07968829076625769
9052.0,0.03660177171711053
9056.0,0.026354506636173836
9060.0,-0.009494457271218266
9064.0,-0.023212445459770744
9068.0,0.008572767315898764
9072.0,0.0017323540828989863
9076.0,-0.0004512218148135326
9080.0,-0.0007362525921008432
9084.0,-0.016207937153900297
9088.0,0.016874131528427386
9092.0,0.004222164613309468
9096.0,-0.006843551839295582
9100.0,-0.0030670882612130745
9104.0,0.012346634643015036
9108.0,0.014619122775057591
9112.0,-0.01617231317656595
9116.0,-0.00627848535785011
9120.0,0.004869875715045086
9124.0,0.0010251201683621903
9128.0,0.00870096541341196
9132.0,0.0026210079836542213
9136.0,0.0013209511341470074
9140.0,0.005562647752693392
9144.0,-0.025999898569996766
9148.0,0.005504443434074431
9152.0,0.0027497502260248343
9156.0,-0.00795395861605508
9160.0,-0.0009473120673155823
9164.0,-0.004871750010743196
9168.0,0.00820308612799594
9172.0,0.007064353558920487
9176.0,0.010966134440552248
9180.0,-0.0021384972149557408
9184.0,-0.0072803079906322635
9188.0,0.006230353554573318
9192.0,-0.011926646834139248
9196.0,-0.0016081917546645634
9200.0,-0.00990520371501279
9204.0,0.005638240944365085
9208.0,0.004681062881034302
9212.0,-0.009422200513607357
9216.0,0.0040965968162123105
9220.0,-0.008546456679634957
9224.0,-0.01359537269723467
9228.0,0.009171103913931116
9232.0,0.0038285646857334557
9236.0,0.0073098156848806295
9240.0,0.014464819416107522
9244.0,-0.009854579768845316
9248.0,-0.015034847329855472
9252.0,-0.014698412552558151
9256.0,-0.005199501154771499
9260.0,0.009188472382018057
9264.0,0.0035881766894974515
9268.0,0.003603658459032639
9272.0,0.004568518377843249
9276.0,0.026900173080241743
9280.0,0.00236857450931126
9284.0,-0.00504922714725909
9288.0,0.00024213566815878447
9292.0,-0.002858971330097734
9296.0,-0.006919525827700521
9300.0,0.00548273860188117
9304.0,0.017319527820850725
9308.0,-0.0002776620271966784
9312.0,0.005468471725918075
9316.0,-0.0033422819936778985
9320.0,0.017522856976081837
9324.0,0.014793097254572968
9328.0,0.005978882199695885
9332.0,-0.011130534851215311
9336.0,0.013783534024151348
9340.0,-0.001995127991800604
9344.0,0.027728450528081143
9348.0,0.058583742350986595
9352.0,0.09272282598170745
9356.0,0.13838757717282296
9360.0,0.16007960462519905
9364.0,0.16932033290150791
9368.0,0.19398680836661059
9372.0,0.2193508861382178
9376.0,0.22707694248677052
9380.0,0.24271719313506807
9384.0,0.2429343102301726
9388.0,0.24809053131392278
9392.0,0.2587083432956928
9396.0,0.25687915707263165
9400.0,0.24149773463474802
9404.0,0.23870541112436966
9408.0,0.21193218186971133
9412.0,0.20250080202906784
9416.0,0.15882029355899485
9420.0,0.15336053006700215
9424.0,0.1138151430279731
9428.0,0.09749019802341787
9432.0,0.06692368880249437
9436.0,0.04786264147330741
9440.0,0.00630209205694466
9444.0,0.027912738543620415
9448.0,0.008705194591422645
9452.0,-0.007280799565778269
9456.0,-0.01265528359029396
9460.0,0.000838255700690747
9464.0,0.0025860686362522657
9468.0,-0.018011597039541277
9472.0,-0.0008664963391423295
9476.0,0.007533525599578315
9480.0,0.017401772195193035
9484.0,-0.04980593114385468
9488.0,-0.08240007514857565
9492.0,-0.14720097370388485
9496.0,-0.16245202627254582
9500.0,0.005705704105778125
9504.0,0.1089503758957551
9508.0,0.1886347634373595
9512.0,0.3006237198526816
9516.0,0.4034759847297742
9520.0,0.5056351396954685
9524.0,0.6423632535486121
9528.0,0.7385631572704778
9532.0,0.8146387891602412
9536.0,0.9428205669883616
9540.0,1.0633873804253438
9544.0,0.9287652714940217
9548.0,0.8253980555573767
9552.0,0.7251495840512575
9556.0,0.6075032286349956
9560.0,0.528721941060635
9564.0,0.40128986516424525
9568.0,0.310644753127385
9572.0,0.1999036036683342
9576.0,0.10564770919762333
9580.0,-0.007806851872287365
9584.0,-0.08102101560238664
9588.0,-0.12707140506135028
9592.0,-0.19428737178488345
9596.0,-0.2551066240836158
9600.0,-0.3231533599326414
9604.0,-0.25191999350425065
9608.0,-0.2020272677868879
9612.0,-0.12257908201801936
9616.0,-0.06959007745573614
9620.0,-0.04503060150441179
9624.0,-0.04330509589765907
9628.0,-0.05063333799490409
9632.0,-0.04684071075238375
9636.0,-0.03546132615790356
9640.0,-0.037819958413707194
9644.0,-0.03218569582281265
9648.0,-0.02959061950758115
9652.0,-0.03611884242977748
9656.0,-0.009285874810239594
9660.0,-0.017033330172122357
9664.0,-0.016437099008893393
9668.0,-0.024929819858929735
9672.0,-0.032270979982697914
9676.0,-0.032390858059361184
9680.0,-0.03282067425287993
9684.0,-0.009124764028833488
9688.0,-0.008664708290029605
9692.0,0.0012167147038647077
9696.0,-0.012291753059738689
9700.0,-0.00756860821562346
9704.0,0.014628569174061825
9708.0,0.04801922638457064
9712.0,0.06094916012511721
9716.0,0.0846964064266964
9720.0,0.13080653604935902
9724.0,0.1346151225685404
9728.0,0.17120318613703006
9732.0,0.18430079447233488
9736.0,0.20130124862748808
9740.0,0.23050538523543163
9744.0,0.23877597940161627
9748.0,0.23803636514806756
9752.0,0.2532716902468867
9756.0,0.29944572471884356
9760.0,0.2785285817412305
9764.0,0.2893844045428431
9768.0,0.29707350443846126
9772.0,0.3206436401251943
9776.0,0.3106815519312287
9780.0,0.3042100901611147
9784.0,0.3085598214976662
9788.0,0.3002811296757475
9792.0,0.3087994592085943
9796.0,0.3026392995481732
9800.0,0.28726683391297136
9804.0,0.2840635889431899
9808.0,0.23690913255240836
9812.0,0.24550916556866234
9816.0,0.2302273880716749
9820.0,0.23721169537627648
9824.0,0.18769289186434318
9828.0,0.18503305689392643
9832.0,0.17415410395920664
9836.0,0.13988522025584182
9840.0,0.09884709857182357
9844.0,0.10344390923306453
9848.0,0.04926449442639197
9852.0,0.05377081224972726
9856.0,0.012452277354029059
9860.0,0.009521667842149327
9864.0,0.0018405660865795737
9868.0,-0.007173383676941766
9872.0,0.0009565503610391329
9876.0,0.015915230567101243
9880.0,-0.007156165586810434
9884.0,0.005152273612175988
9888.0,-0.002410578929074879
9892.0,0.005876369800298972
9896.0,-0.0013801990608435658
9900.0,-0.00601747236065344
9904.0,0.016141030801591384
9908.0,0.01058928617321739
9912.0,0.01607153171821878
9916.0,0.01318611385558798
9920.0,0.005947467588710429
9924.0,-0.006782471709662108
9928.0,-0.011337556956683868
9932.0,-0.01477513065915568
9936.0,-0.011064614214652657
9940.0,-0.005564237321377492
9944.0,-0.0019024960760870842
9948.0,-0.0037028705806680276
9952.0,0.006510064778140679
9956.0,0.01426374667127503
9960.0,0.018729290086199803
9964.0,-0.00581527266599097
9968.0,0.004270396141462151
9972.0,0.010658493118415277
9976.0,-0.007989194538655384
9980.0,0.013054951063833808
9984.0,0.016555488490829988
9988.0,0.0010089025588118437
9992.0,0.010295385630169943
9996.0,0.015228659057756524
10000.0,0.005721260970105577
10004.0,0.009932382660930019
10008.0,-0.006825331700564075
10012.0,0.008241274756146279
10016.0,-0.010818145965494503
10020.0,0.0014754906962472147
10024.0,0.009408720306066112
10028.0,0.011874254132050812
10032.0,-0.002454314724738289
10036.0,-0.017569778575533948
10040.0,0.007027338995430461
10044.0,0.0008860964678864213
10048.0,-0.023213067600963044
10052.0,0.010761937860770222
10056.0,0.00848411181462485
10060.0,-0.011029442689454499
10064.0,0.003719277103366142
10068.0,-0.0035336051793138407
10072.0,0.0022051543004803333
10076.0,-0.012006811709470204
10080.0,-0.006261640024906654
10084.0,-0.01766830140959491
10088.0,-0.03153143429111575
10092.0,0.010541720223621246
10096.0,0.00046336740910606197
10100.0,0.011886712298901486
10104.0,-0.0007500595769199754
10108.0,-0.008633312464904112
10112.0,0.009360309483370742
10116.0,-0.0050022812121619095
10120.0,0.008620869221107509
10124.0,-0.002717244570244442
10128.0,0.02161981723107252
10132.0,-0.010861149278995865
10136.0,0.013891978844644309
10140.0,-0.001602253481997415
10144.0,0.017897568099365428
10148.0,0.06312967292038113
10152.0,0.10240722620218273
10156.0,0.11027763116420575
10160.0,0.1494791816987328
10164.0,0.15981832274757182
10168.0,0.17355988284515972
10172.0,0.20370698595832626
10176.0,0.22046645977022414
10180.0,0.24083355537881418
10184.0,0.22796424426282186
10188.0,0.23327130014281436
10192.0,0.24695029131985535
10196.0,0.23958705488188606
10200.0,0.21464869331293068
10204.0,0.2111967991034839
10208.0,0.19259453021104797
10212.0,0.17550237011922515
10216.0,0.16649154754840634
10220.0,0.13076712360658366
10224.0,0.11209424043604607
10228.0,0.1035109775342212
10232.0,0.05687641224576655
10236.0,0.03172716838452411
10240.0,0.00993766829731947
10244.0,-0.00899031635321688
10248.0,-0.002731512269577058
10252.0,-0.0026198751292241564
10256.0,0.002480292398925415
10260.0,-0.00018378434135031172
10264.0,0.0032464187988533177
10268.0,-0.02834661164301165
10272.0,-0.0014782029491785809
10276.0,-0.0157471708546824
10280.0,0.002666803190581355
10284.0,-0.035605189344970506
10288.0,-0.08375370756954768
10292.0,-0.1203705901419973
10296.0,-0.16291588869667975
10300.0,0.0142968526742155
10304.0,0.0946147705753368
10308.0,0.19100487976208871
10312.0,0.28994900340568047
10316.0,0.38306956510806695
10320.0,0.4712994705717222
10324.0,0.5760742058125969
10328.0,0.6643555883836505
10332.0,0.7691781918379345
10336.0,0.8597892706264377
10340.0,0.9504325155384131
10344.0,0.8520018978016809
10348.0,0.7717566765518236
10352.0,0.6645522612572318
10356.0,0.5527507628573485
10360.0,0.4767232098799474
10364.0,0.3825808632756718
10368.0,0.27412993536210023
10372.0,0.21680934283332765
10376.0,0.09025124321862435
10380.0,-0.006838755448691097
10384.0,-0.07268209040261164
10388.0,-0.12392025874884431
10392.0,-0.19259234263750136
10396.0,-0.21497194710815057
10400.0,-0.29019067134763
10404.0,-0.22117284162710593
10408.0,-0.183066901331769
10412.0,-0.10651095986750382
10416.0,-0.048581053054766364
10420.0,-0.03937348464151883
10424.0,-0.03381435782027725
10428.0,-0.037174958106142825
10432.0,-0.03911052419877574
10436.0,-0.044367411735265594
10440.0,-0.02738941116896676
10444.0,-0.05281780726842662
10448.0,-0.03278679294457475
10452.0,-0.034266720880079746
10456.0,-0.0019014363894481572
10460.0,-0.0366303550252835
10464.0,-0.012027782685223358
10468.0,-0.012996286786224245
10472.0,-0.036517090403238237
10476.0,-0.02629848673661188
10480.0,-0.012229439829693458
10484.0,-0.0033612658700615545
10488.0,-0.021737786342025944
10492.0,-0.011055594085474484
10496.0,0.011700091871255865
10500.0,0.0033860544756181515
10504.0,0.03305277995312949
10508.0,0.032083406030339635
10512.0,0.07124145450260938
10516.0,0.07284492704151158
10520.0,0.12241644591435726
10524.0,0.1228079514320418
10528.0,0.14192764881265157
10532.0,0.158293019128726
10536.0,0.20073922847376396
10540.0,0.20858239705091172
10544.0,0.20176291364415624
10548.0,0.21546596621611191
10552.0,0.24541353489122514
10556.0,0.27027557823440235
10560.0,0.2648662647767442
10564.0,0.27032532202579934
10568.0,0.28071177133252023
10572.0,0.2986184854818854
10576.0,0.2803008588616404
10580.0,0.2973839831647542
10584.0,0.27184068375257836
10588.0,0.28949100215057716
10592.0,0.3005345138213631
10596.0,0.2686606213179814
10600.0,0.2561954982802643
10604.0,0.2589823550827004
10608.0,0.24902142882945694
10612.0,0.21866108845193144
10616.0,0.21148454168288738
10620.0,0.2054548154436694
10624.0,0.1833563046982731
10628.0,0.1856227721693677
10632.0,0.15365440260162794
10636.0,0.12347836703725333
10640.0,0.09794191536397437
10644.0,0.09592630999709213
10648.0,0.06243571841183176
10652.0,0.03738745408379099
10656.0,0.031009565708866364
10660.0,0.008932803406279338
10664.0,-0.006801832854937581
10668.0,0.0043152537664393935
10672.0,-0.00612335753293024
10676.0,0.008518207032491511
10680.0,-0.0031201220035745264
10684.0,0.0018115423335918162
10688.0,-0.008823389516030247
10692.0,-0.01198179966060173
10696.0,-0.010816118626424388
10700.0,0.010837065977335731
10704.0,-0.01056532962576033
10708.0,-0.0037460096941899458
10712.0,0.0019186953600542006
10716.0,0.0052851182804921504
10720.0,0.008429100940571414
10724.0,0.009741019487615566
10728.0,0.007783081841597463
10732.0,0.0006283217867068061
10736.0,-0.008940923031128159
10740.0,-4.340912283272241e-06
10744.0,-0.011233711337466087
10748.0,-0.009022207581078396
10752.0,0.0032199162460058873
10756.0,-0.007424799818319781
10760.0,-0.0025264449038264708
10764.0,-0.018029348119373675
10768.0,-0.0023071089543498
10772.0,0.005731645890411917
10776.0,-0.006460078079842732
10780.0,-0.0064568404554218185
10784.0,0.010513225867392643
10788.0,4.938667700290019e-05
10792.0,0.004390140960599857
10796.0,-0.013168790736480076
10800.0,-0.01463501111564608
10804.0,0.0033477655814666673
10808.0,-0.0071700656549256924
10812.0,0.009055663576755671
10816.0,0.005695665757185337
10820.0,-0.005990856140421368
10824.0,-0.0022431574874546877
10828.0,0.004529418049866645
10832.0,-0.0014158661421842032
10836.0,0.005641093939745074
10840.0,-0.009465186616563074
10844.0,0.00036917258581683473
10848.0,0.0016225468393117478
10852.0,-0.009503174916921637
10856.0,0.006445462935814664
10860.0,0.003239117558676069
10864.0,0.010785686448005281
10868.0,-0.0020178179479603438
10872.0,0.005623606123536304
10876.0,-0.0029277063664043326
10880.0,9.19894689108245e-05
10884.0,3.55362054364295e-05
10888.0,-0.0008984490371527347
10892.0,0.0038493153815201487
10896.0,0.004741607746393233
10900.0,0.007980432882059069
10904.0,-0.0015553738405630214
10908.0,-0.0016455110456607925
10912.0,-0.007371558796756319
10916.0,0.005409742622062258
10920.0,-0.006811312766465153
10924.0,0.018842499151045553
10928.0,0.009353979863255845
10932.0,-0.00719603745253707
10936.0,0.007829869673344217
10940.0,-0.0031815590186074806
10944.0,0.032591285144114246
10948.0,0.06482941772049802
10952.0,0.08925662118533959
10956.0,0.11019463057468361
10960.0,0.14674422995321226
10964.0,0.16755466541119893
10968.0,0.1942554670583304
10972.0,0.215396688843512
10976.0,0.24678397617598277
10980.0,0.24003685400729974
10984.0,0.2328106411293621
10988.0,0.24885837670737088
10992.0,0.23827247764397774
10996.0,0.23913763396408577
11000.0,0.23912772614650396
11004.0,0.2257970200342846
11008.0,0.2093947856254139
11012.0,0.20171766304776986
11016.0,0.16447177327963813
11020.0,0.14673600578200718
11024.0,0.12475619367416008
11028.0,0.09296367842431692
11032.0,0.07553756449817842
11036.0,0.048336995590196205
11040.0,0.0013614301940899182
11044.0,0.007282104958370575
11048.0,0.002601269390463385
11052.0,-0.01792700709974043
11056.0,-0.015365086334578299
11060.0,-0.00604903240041088
11064.0,0.01721174099881147
11068.0,-0.010175461096315301
11072.0,-0.004701240229804498
11076.0,0.00979290362443658
11080.0,-0.01115782056935853
11084.0,-0.037264793328966504
11088.0,-0.08241899516264985
11092.0,-0.14323553324473495
11096.0,-0.17259498739979942
11100.0,-0.0055660491003650375
11104.0,0.10366804658081319
11108.0,0.2082033761054889
11112.0,0.29958271736709274
11116.0,0.3966644259775482
11120.0,0.49581603282019565
11124.0,0.6124549837231718
11128.0,0.7199531452724584
11132.0,0.7874135659284294
11136.0,0.9140650869985908
11140.0,1.0141033122221919
11144.0,0.9098298335769882
11148.0,0.815100184527498
11152.0,0.7093402075739924
11156.0,0.6174128171178119
11160.0,0.5048574783620324
11164.0,0.41107332331144425
11168.0,0.2929376041545074
11172.0,0.20406307031426874
11176.0,0.10421992767599589
11180.0,-0.005500409435746772
11184.0,-0.05839709889388426
11188.0,-0.12109399976898684
11192.0,-0.15991868695635633
11196.0,-0.23993046013177266
11200.0,-0.2971721576226039
11204.0,-0.24791172472001538
11208.0,-0.18440360714246187
11212.0,-0.13657494758482203
11216.0,-0.05817808455754845
11220.0,-0.05918074179123285
11224.0,-0.059999972929904624
11228.0,-0.04879456875111137
11232.0,-0.05524307313596477
11236.0,-0.03143179683406419
11240.0,-0.03522090782640665
11244.0,-0.03442364278889361
11248.0,-0.03201719959546987
11252.0,-0.05090024394933433
11256.0,-0.0328391011342601
11260.0,-0.018644921326559514
11264.0,-0.01177252833431397
11268.0,-0.023385056583998955
11272.0,-0.017306195768888234
11276.0,-0.016440437131480534
11280.0,0.006170692464812565
11284.0,-0.0037438027136703226
11288.0,-0.006589548393546158
11292.0,0.006848721872789764
11296.0,-0.0163536355949765
11300.0,0.01112116387141074
11304.0,0.02384523856832869
11308.0,0.048717766872045556
11312.0,0.07121291919337634
11316.0,0.11281050106548887
11320.0,0.13043803370298523
11324.0,0.13233024978075753
11328.0,0.16057187569813078
11332.0,0.19069454640027356
11336.0,0.19971263694609828
11340.0,0.20156365021063957
11344.0,0.21814744062523184
11348.0,0.2536996923042265
11352.0,0.25115152981188976
11356.0,0.26847864288163786
11360.0,0.2678469954619475
11364.0,0.2777738148624745
11368.0,0.2871780051355383
11372.0,0.30022155374448417
11376.0,0.3070712088455326
11380.0,0.3148585653120815
11384.0,0.30519854366621046
11388.0,0.3047147865878555
11392.0,0.291840396430288
11396.0,0.28047339611572525
11400.0,0.2742944228789735
11404.0,0.26924645443559303
11408.0,0.24212522459672575
11412.0,0.24796074963866888
11416.0,0.22720861413697252
11420.0,0.2247808615033472
11424.0,0.20487005755241983
11428.0,0.17308442088876938
11432.0,0.1674724456717206
11436.0,0.13667636231896627
11440.0,0.11691286118566169
11444.0,0.10437329478136012
11448.0,0.07477864891462313
11452.0,0.03386516587080561
11456.0,0.023346288026022288
11460.0,-0.0024874561695766794
11464.0,-0.007906475956085054
11468.0,-0.0026990033532208212
11472.0,-0.005303120134719031
11476.0,0.007082492768728068
11480.0,-0.0001106637226731452
11484.0,-0.0028762353721496327
11488.0,0.017834628482551053
11492.0,-0.0025523926764440107
11496.0,0.0035340187357896964
11500.0,0.004454486507027376
11504.0,0.0044670472671848515
11508.0,-0.019180990966369455
11512.0,-0.00016518892482145805
11516.0,0.007915942174076245
11520.0,-0.004155277795157598
11524.0,0.005703822187981175
11528.0,-0.002035250225736531
11532.0,-0.006593359034958407
11536.0,0.021270610519204886
11540.0,-0.0257608096084752
11544.0,0.005683514385930839
11548.0,0.00397142096329072
11552.0,-0.002145059705828332
11556.0,0.009218944121874552
11560.0,0.010756943623148893
11564.0,0.008142986558985132
11568.0,-0.017974090221285034
11572.0,-0.0069487022665799284
11576.0,-0.0011872213622486642
11580.0,-0.011676076719007895
11584.0,0.01603900059989527
11588.0,0.0071229369065631525
11592.0,-0.012116212480051756
11596.0,0.005178987541912121
11600.0,0.01800333357231065
11604.0,0.004879757167996377
11608.0,0.0046870198300750805
11612.0,-0.003255431281749587
11616.0,0.018148001166917144
11620.0,-0.0037069584439083916
11624.0,-0.004383176510883864
11628.0,0.0020054362880764245
11632.0,0.01877268644774502
11636.0,0.0022844763708046
11640.0,0.0011638007865217485
11644.0,-0.012691386958324951
11648.0,-0.008707976783367597
11652.0,-0.0020810583176266253
11656.0,0.006676524164552127
11660.0,0.003156947937215171
11664.0,-0.022259266601563462
11668.0,-0.007000154651294409
11672.0,0.009451885136925593
11676.0,0.0233473928012649
11680.0,-0.014106402955871322
11684.0,-0.008850246568401398
11688.0,0.0033553734876245324
11692.0,-0.007016742223165664
11696.0,-0.004551223042776243
11700.0,0.00985870578254134
11704.0,-0.004990801041246022
11708.0,-0.004180202020648463
11712.0,-0.021264313213249477
11716.0,0.00023398019272305692
11720.0,-0.012702661888923028
11724.0,0.006985023413358195
11728.0,0.004872589133613619
11732.0,-0.012059056863177669
11736.0,-0.007047422951467279
11740.0,-0.00890655784889409
11744.0,0.035312179423804387
11748.0,0.03882820659310961
11752.0,0.09566227665856453
11756.0,0.11481310392471808
11760.0,0.1605814490260692
11764.0,0.15339283107206705
11768.0,0.1798060316531189
11772.0,0.20453782238502624
11776.0,0.22820626772659258
11780.0,0.2377046761335763
11784.0,0.23462019537021375
11788.0,0.2327981538275264
11792.0,0.2548392681865264
11796.0,0.24800145898213743
11800.0,0.240599135196287
11804.0,0.2340091133342745
11808.0,0.21842331046495073
11812.0,0.19633482139265718
11816.0,0.1780349679964914
11820.0,0.1371250359860678
11824.0,0.10516297686040983
11828.0,0.10791560220578288
11832.0,0.06959516671752201
11836.0,0.042806865356981416
11840.0,-0.014217639906955779
11844.0,-0.009013987742974834
11848.0,0.0011452534161074952
11852.0,-0.008929260367429278
11856.0,-0.022245865255821534
11860.0,0.0034028839927753712
11864.0,-0.0017491087263125668
11868.0,0.01240386506132446
11872.0,0.0053307995756648975
11876.0,0.0060133407675177246
11880.0,0.01247350924314625
11884.0,-0.036722211720910204
11888.0,-0.06351712047248104
11892.0,-0.10719049700486101
11896.0,-0.15274176556338748
11900.0,-0.005082065028101505
11904.0,0.10172649157705864
11908.0,0.19773792139492694
11912.0,0.28783707813519027
11916.0,0.4139877025858638
11920.0,0.48396853788223215
11924.0,0.5838403993170821
11928.0,0.6839409426508403
11932.0,0.7782800328184925
11936.0,0.8755742016399044
11940.0,0.9886211016160825
11944.0,0.8937356102799767
11948.0,0.8000172640164793
11952.0,0.6945681412334042
11956.0,0.6065591771702863
11960.0,0.5046480840107087
11964.0,0.4027670394915576
11968.0,0.2996771886049249
11972.0,0.1921451036141388
11976.0,0.11366849214136752
11980.0,0.0016700098050581552
11984.0,-0.06583080459804183
11988.0,-0.12803981168094702
11992.0,-0.1764253561102787
11996.0,-0.2395361164765601
12000.0,-0.2737726042619434
12004.0,-0.2346830761570291
12008.0,-0.16789365252307456
12012.0,-0.11641986688055303
12016.0,-0.06314215928300325
12020.0,-0.05822920519358378
12024.0,-0.06959791400445854
12028.0,-0.05037379276336004
12032.0,-0.044672349405422855
12036.0,-0.017672285378418067
12040.0,-0.04689919585554457
12044.0,-0.01560869019218896
12048.0,-0.022091148390126797
12052.0,-0.03512246926993467
12056.0,-0.02435666147251069
12060.0,-0.022487701610487035
12064.0,-0.03522662414839903
12068.0,-0.03446690848467253
12072.0,-0.015554661265801788
12076.0,-0.03128781225060838
12080.0,0.006172473291695707
12084.0,-0.012384582699656074
12088.0,0.0012819699401304223
12092.0,-0.03864383767890335
12096.0,0.0014883597698106604
12100.0,-0.019789596844212064
12104.0,0.02441802052691431
12108.0,0.023847451685437504
12112.0,0.07885121229463325
12116.0,0.09047618967744102
12120.0,0.11399968106407966
12124.0,0.1031684794506886
12128.0,0.1460010640312911
12132.0,0.16618725692970596
12136.0,0.17833262912374528
12140.0,0.21118411506786608
12144.0,0.23283215296984772
12148.0,0.21800592213574108
12152.0,0.26654243354334434
12156.0,0.25334867567302854
12160.0,0.27632110946011784
12164.0,0.27851183168034543
12168.0,0.3085366904271398
12172.0,0.29722908842797385
12176.0,0.29668555424167986
12180.0,0.2876647344714082
12184.0,0.3007814417282224
12188.0,0.2891585172102657
12192.0,0.29614130607941724
12196.0,0.29544019333216315
12200.0,0.28496722949185566
12204.0,0.27511107693467174
12208.0,0.2585979999708011
12212.0,0.2544221565394297
12216.0,0.2159571147190105
12220.0,0.1843022383984041
12224.0,0.17610167040655186
12228.0,0.18243110368372953
12232.0,0.16403536378721922
12236.0,0.1254527093774004
12240.0,0.0996187669964886
12244.0,0.08667860313618392
12248.0,0.05590583086012135
12252.0,0.050812534431235894
12256.0,0.020049058656825876
12260.0,-0.00964997057506402
12264.0,0.00906914423188515
12268.0,-0.0015402158491903857
12272.0,0.0024893926425296605
12276.0,-0.002666886896153416
12280.0,-2.069707863089412e-06
12284.0,-0.018463640416074473
12288.0,0.005036998681460305
12292.0,5.655958994762998e-05
12296.0,-0.015461630919611091
12300.0,-0.011998167814072322
12304.0,-0.000799339589384233
12308.0,-0.0024834229639394047
12312.0,0.010424156745777728
12316.0,-0.009118073483303178
12320.0,-0.002841695255936979
12324.0,0.006448754063672277
12328.0,-0.022417511472832042
12332.0,-0.007904280030548183
12336.0,-0.010473501818061044
12340.0,-0.01113753732241046
12344.0,0.010607794945898497
12348.0,-0.015303449907347758
12352.0,-0.0010239674118689068
12356.0,-0.007077174725480471
12360.0,-0.0162332897761248
12364.0,-0.000988035718181548
12368.0,-0.009978475011694144
12372.0,0.005532036846324553
12376.0,-0.012876018842774917
12380.0,-0.0066055592191414545
12384.0,-8.617172771172782e-05
12388.0,-0.002667461579980649
12392.0,-0.0015004941356891836
12396.0,0.009255263086321948
12400.0,0.003418762993765142
12404.0,-0.012169687181766892
12408.0,-0.0038363492198415783
12412.0,-0.0011916185347621933
12416.0,0.02179758402327174
12420.0,-0.006267067664040581
12424.0,0.0075896954700894
12428.0,-0.00119469426179911
12432.0,-0.011417266963384643
12436.0,0.014768811543855467
12440.0,-0.00911415305254869
12444.0,-0.010192445490113188
12448.0,0.012226736187303125
12452.0,0.01697499262589575
12456.0,-0.01004767820355459
12460.0,-0.01605846312191311
12464.0,0.0018609985960451965
12468.0,0.005334361643033795
12472.0,-0.016404228764543855
12476.0,-0.004571260501282163
12480.0,0.0005954171725258938
12484.0,-0.008081740198614481
12488.0,0.006233813924082315
12492.0,-0.010386217447438386
12496.0,-0.0046221205809462715
12500.0,-0.009375014644719917
12504.0,-0.0027693680367724526
12508.0,0.005515946108176021
12512.0,0.012362535381737007
12516.0,-0.005772564779950267
12520.0,0.018571655086661656
12524.0,-0.013934624860528377
12528.0,-0.022658186213117673
12532.0,0.0045800236437723634
12536.0,-0.003813945058792011
12540.0,0.00092599464886814
12544.0,0.018159838373487835
12548.0,0.05502321223540774
12552.0,0.08391377627876115
12556.0,0.1259052418052299
12560.0,0.14739581745847544
12564.0,0.18054850996015262
12568.0,0.2049167039300457
12572.0,0.19733388097610194
12576.0,0.21393659726408473
12580.0,0.22543870754810913
12584.0,0.2537805114974124
12588.0,0.24796638346274058
12592.0,0.2363168370773662
12596.0,0.24861542324882893
12600.0,0.24608303655443117
12604.0,0.21507999748229972
12608.0,0.21628667876206886
12612.0,0.18637979297246615
12616.0,0.17476742113604957
12620.0,0.14842499516074603
12624.0,0.11675795010005742
12628.0,0.09625217977669935
12632.0,0.054796340215865005
12636.0,0.028319437461766774
12640.0,-0.003968583999017264
12644.0,0.005922548462450097
12648.0,-0.012384703153990036
12652.0,0.007694783407161014
12656.0,-0.0010673799065931437
12660.0,0.0006770695737449364
12664.0,-0.009887865876489555
12668.0,-0.004473495140577264
12672.0,-0.0047787874145503615
12676.0,-0.0097083027288979
12680.0,0.00458490349665256
12684.0,-0.04592668235396925
12688.0,-0.08759752722881539
12692.0,-0.11138241064483803
12696.0,-0.1579628612789676
12700.0,0.012373009084656706
12704.0,0.1022891847127334
12708.0,0.19043397333038883
12712.0,0.30265548455969316
12716.0,0.40220664142095613
12720.0,0.48546801635798165
12724.0,0.5707947992578004
12728.0,0.7005646928465948
12732.0,0.7773050140155995
12736.0,0.8854162055309939
12740.0,0.9978253725376021
12744.0,0.8995669552631193
12748.0,0.7793197319433615
12752.0,0.693097162873771
12756.0,0.5749865875251395
12760.0,0.4709180723202568
12764.0,0.4014920062066277
12768.0,0.3068937344053451
12772.0,0.19729512058150522
12776.0,0.09205414632632497
12780.0,-0.004428858386283544
12784.0,-0.0530291697670746
12788.0,-0.1233667199316662
12792.0,-0.181574670379797
12796.0,-0.23508972502737208
12800.0,-0.2934431015794298
12804.0,-0.2583678105219159
12808.0,-0.17819109550260614
12812.0,-0.11890105396840289
12816.0,-0.0606412085594712
12820.0,-0.058300265332749616
12824.0,-0.03256659886135624
12828.0,-0.05732308683027218
12832.0,-0.028351839179957868
12836.0,-0.057050729629843346
12840.0,-0.016477952187940605
12844.0,-0.04217495937171213
12848.0,-0.027038428751236812
12852.0,-0.038489286616696865
12856.0,-0.03218009563916987
12860.0,-0.03253383654755313
12864.0,-0.025695349225628737
12868.0,-0.017717157867356767
12872.0,-0.007806752915385124
12876.0,-0.038230875442152375
12880.0,-0.017474006118314123
12884.0,0.0003284468698804121
12888.0,-0.017938719458770472
12892.0,-0.0031572379801056566
12896.0,0.008975844723202056
12900.0,0.01693713383039285
12904.0,0.011608400478316395
12908.0,0.04462105977499705
12912.0,0.07920183083277617
12916.0,0.09616508275325505
12920.0,0.09961067644671935
12924.0,0.1517128283999468
12928.0,0.15913248815783773
12932.0,0.18140003491224652
12936.0,0.19191560707248542
12940.0,0.20685338270648512
12944.0,0.20735883558643137
12948.0,0.22133351749551067
12952.0,0.2688087148442556
12956.0,0.2508128651716193
12960.0,0.28526400075742875
12964.0,0.2811893637183686
12968.0,0.29700692012793184
12972.0,0.30155493897688634
12976.0,0.29352692478546905
12980.0,0.296886013404763
12984.0,0.3032285596774721
12988.0,0.3088368208757996
12992.0,0.2870958256913481
12996.0,0.27728665208837816
13000.0,0.260859821548781
13004.0,0.2703523096973483
13008.0,0.25240833467920987
13012.0,0.23546663248160846
13016.0,0.2290054317154613
13020.0,0.1987645018618487
13024.0,0.18170691765958263
13028.0,0.16014528260189456
13032.0,0.13482303233492793
13036.0,0.1397164687230358
13040.0,0.10511858466302869
13044.0,0.08824849353857123
13048.0,0.07789985420576424
13052.0,0.05676183142564026
13056.0,0.020095809049575628
13060.0,-0.003439808765723547
13064.0,0.007207811442436199
13068.0,0.0213453695558703
13072.0,-0.008149740884361245
13076.0,-0.0123203990623009
13080.0,0.009647168633317493
13084.0,0.008591599607271997
13088.0,-0.011070495737977084
13092.0,0.0021843411409357212
13096.0,-0.0023877968748257086
13100.0,0.008999483111890036
13104.0,0.001552671164065648
13108.0,-0.009315839626608029
13112.0,-0.004015282077322806
13116.0,0.0007277820554525194
13120.0,-0.027044154487280717
13124.0,-0.006509867586525521
13128.0,0.008364206999886693
13132.0,-0.005297198664662228
13136.0,0.006107033439086347
13140.0,-0.005541101097240102
13144.0,0.010796645928120718
13148.0,-0.005977690205699486
13152.0,-0.006546271485301913
13156.0,0.0026089324626252025
13160.0,-0.00041441259682937755
13164.0,-0.014704437571900498
13168.0,-0.008511422192240624
13172.0,0.0032899321369012488
13176.0,0.0111326847128955
13180.0,0.0024237548738606607
13184.0,0.0207778515382705
13188.0,0.018229517843816705
13192.0,-0.005167441668175328
13196.0,0.015002453873413032
13200.0,0.018231945154592546
13204.0,-0.0027168379350396327
13208.0,0.00843196474582465
13212.0,0.009983261751304677
13216.0,-0.00040025788322951063
13220.0,-0.008835071091373013
13224.0,0.010775676375663004
13228.0,-0.003097852431140274
13232.0,0.0075695239916329015
13236.0,0.02700025598648344
13240.0,0.0217722635679304
13244.0,0.014171407735460452
13248.0,-0.0073116787990762065
13252.0,0.010309039261869638
13256.0,0.003204838013277029
13260.0,0.00044965208082706876
13264.0,-0.004801916933848657
13268.0,-0.010561041697075224
13272.0,0.010804970297085327
13276.0,-0.0011376229106412116
13280.0,-0.0006176245799378242
13284.0,0.0032586250044242112
13288.0,0.002040428901597859
13292.0,-0.01286848585856168
13296.0,-0.004973196829418176
13300.0,-0.000306927909211245
13304.0,-0.015464673515116325
13308.0,-0.009899083617468222
13312.0,0.00010563237190781614
13316.0,0.0030288327063742342
13320.0,0.0072295989626184835
13324.0,-0.011283838638820176
13328.0,0.0016631512160017584
13332.0,0.028745328007547994
13336.0,0.005750047912536061
13340.0,-0.006613686293669138
13344.0,0.027201121816811894
13348.0,0.06024091624211369
13352.0,0.07615628558250026
13356.0,0.11265881375945955
13360.0,0.15669321450322568
13364.0,0.16622828245759919
13368.0,0.1749447605845875
13372.0,0.19298897825661754
13376.0,0.2506926298964805
13380.0,0.22000232277010454
13384.0,0.23082213891829628
13388.0,0.22999762891613026
13392.0,0.232013602948018
13396.0,0.23992910583798513
13400.0,0.20698952156485345
13404.0,0.21949198283671462
13408.0,0.19698741716658474
13412.0,0.18272970357743526
13416.0,0.16705670008802448
13420.0,0.1519012208869118
13424.0,0.10271106107307137
13428.0,0.08546957866940487
13432.0,0.050164782060209266
13436.0,0.03591092403545554
13440.0,-0.003561377367596297
13444.0,-0.005678014711879793
13448.0,0.007332603683186878
13452.0,-0.005895966992846391
13456.0,0.000399989653901967
13460.0,-0.008729097904214226
13464.0,-0.0035264581818833514
13468.0,-0.007761338415597635
13472.0,-0.009639272824423424
13476.0,0.008292546290296502
13480.0,0.015283190259351495
13484.0,-0.032343304380385976
13488.0,-0.07546007146241371
13492.0,-0.11494844108568918
13496.0,-0.15142190331224248
13500.0,0.00694792207155053
13504.0,0.10103477351441113
13508.0,0.19083440317136932
13512.0,0.2850015435075554
13516.0,0.3681827051367736
13520.0,0.4638343569283165
13524.0,0.5778838957610112
13528.0,0.6470641168680208
13532.0,0.763022567267619
13536.0,0.8410823560261341
13540.0,0.9486161859208234
13544.0,0.8332771104172806
13548.0,0.7636330561671825
13552.0,0.662331786735569
13556.0,0.5851505046748561
13560.0,0.459447672068669
13564.0,0.3810248307877678
13568.0,0.28621868113942356
13572.0,0.1895536250363474
13576.0,0.07966830734106196
13580.0,-0.031234864435494992
13584.0,-0.05929754525654443
13588.0,-0.10022768346868681
13592.0,-0.18385789770874644
13596.0,-0.2165456059673607
13600.0,-0.27886951494127293
13604.0,-0.2455925901548205
13608.0,-0.1790235283861907
13612.0,-0.12684234190524699
13616.0,-0.06699261612628486
13620.0,-0.05677037808693769
13624.0,-0.04250920385319967
13628.0,-0.04469034909357565
13632.0,-0.028653029914415262
13636.0,-0.05571515350400013
13640.0,-0.028324497462056418
13644.0,-0.03354941663302655
13648.0,-0.022573011244094277
13652.0,-0.033871224128604306
13656.0,-0.008560653928792999
13660.0,-0.013602827978891414
13664.0,-0.03294449381811941
13668.0,-0.02101721287081141
13672.0,-0.023849259942190015
13676.0,-0.011000404996648942
13680.0,0.0009495379201587412
13684.0,-0.004440735170178676
13688.0,-0.02284770460933759
13692.0,-0.0014679474932116445
13696.0,-0.008255354528678961
13700.0,0.0037614296895283673
13704.0,0.007937773125370964
13708.0,0.036222977718883886
13712.0,0.06875731413075588
13716.0,0.0843314185333764
13720.0,0.1360582941320813
13724.0,0.13242793371428457
13728.0,0.14839791306856834
13732.0,0.18254312540968146
13736.0,0.1997519726626753
13740.0,0.2173498933368324
13744.0,0.2124852726748166
13748.0,0.23194507687335442
13752.0,0.24282241262533802
13756.0,0.2596133825920207
13760.0,0.28294358396594843
13764.0,0.2660318457815464
13768.0,0.2803802560304029
13772.0,0.2787059642395459
13776.0,0.2814633866097371
13780.0,0.3049409638650026
13784.0,0.2935335237706182
13788.0,0.28773722454607625
13792.0,0.2742874887516169
13796.0,0.2651579030304113
13800.0,0.27454844912338144
13804.0,0.2601676061139992
13808.0,0.24039253370861724
13812.0,0.21873864866470139
13816.0,0.2112106512688702
13820.0,0.21391401468200769
13824.0,0.18142822702167832
13828.0,0.15775652021063233
13832.0,0.14633790603262883
13836.0,0.1282699005539398
13840.0,0.09736914235595734
13844.0,0.1016991396736256
13848.0,0.06515008953038834
13852.0,0.04572295293330609
13856.0,0.030244748703167002
13860.0,-0.011617864024808083
13864.0,0.0005280351609689113
13868.0,-0.008422540885028352
13872.0,0.008897022019959627
13876.0,0.0025114630021355294
13880.0,-0.002055374766752562
13884.0,0.015245891328032736
13888.0,-0.006530670751112848
13892.0,0.010822072500819171
13896.0,0.004777824224424037
13900.0,-0.015930152162986037
13904.0,0.0021453021205541808
13908.0,0.008887121367172558
13912.0,0.005555614371794832
13916.0,0.01372159044529498
13920.0,0.02252887814370191
13924.0,-0.012885674458491795
13928.0,0.004876931641879305
13932.0,0.008545787999688935
13936.0,-0.004234491605525584
13940.0,-0.008993119977161596
13944.0,0.021069098516908084
13948.0,0.015106976896009958
13952.0,0.004592064847283897
13956.0,0.0020465135200301147
13960.0,-0.00953446847031411
13964.0,0.004691979387861439
13968.0,-0.009090496214243684
13972.0,-0.005647643339557234
13976.0,-0.007305720629420071
13980.0,-0.003722191822282583
13984.0,-0.011008296320961097
13988.0,0.005149238894502674
13992.0,0.0012143752216954387
13996.0,-0.005630254664248392
14000.0,-0.013517442812971313
14004.0,0.007909857589753969
14008.0,0.001756335212439557
14012.0,-0.00500601947873372
14016.0,-0.010554277483361496
14020.0,-0.0005237526543130513
14024.0,-0.011156071740399218
14028.0,-0.013164628066077462
14032.0,0.00807538876133345
14036.0,-0.008404514725912048
14040.0,-0.010581499222108968
14044.0,-0.00028474304628023334
14048.0,0.005621190391924874
14052.0,-0.0048928791502493695
14056.0,0.011249645587860761
14060.0,0.013305991925259098
14064.0,0.012965614070584655
14068.0,-0.014703587603740608
14072.0,0.005616844983733029
14076.0,-0.018504437070641526
14080.0,0.010239453876434412
14084.0,-0.0020294635622141515
14088.0,0.011457146953848488
14092.0,0.01206228723679186
14096.0,-0.006194750924010053
14100.0,-0.012484652923286271
14104.0,-0.010613356893040899
14108.0,-0.004837635874017149
14112.0,-0.0012510408388200877
14116.0,-0.014779348413513322
14120.0,-0.009577097666547138
14124.0,0.014040018469584086
14128.0,0.0015778890409378153
14132.0,0.01065240926453838
14136.0,-0.0085085837090792
14140.0,-0.01713623568664782
14144.0,0.032354654627687635
14148.0,0.050749864745025984
14152.0,0.08599785901089955
14156.0,0.12153699514711529
14160.0,0.1587899531730048
14164.0,0.16998384698758057
14168.0,0.18967550843973172
14172.0,0.2160062875426506
14176.0,0.22804622365208932
14180.0,0.23457739900299007
14184.0,0.2763065485300865
14188.0,0.26189798044360885
14192.0,0.2606939281854685
14196.0,0.2805932976423975
14200.0,0.2588806730838405
14204.0,0.24643984394873075
14208.0,0.20575163056529644
14212.0,0.18102765313371177
14216.0,0.19180418502297228
14220.0,0.1560735377730176
14224.0,0.11839834419703801
14228.0,0.09757787151962112
14232.0,0.05977252972640074
14236.0,0.03168288611149439
14240.0,-0.01659345741870932
14244.0,0.00017088414367849716
14248.0,0.0001588328862937828
14252.0,0.020039045787314684
14256.0,0.0014969073198269555
14260.0,-0.027317703172585885
14264.0,0.006396590145567084
14268.0,0.005715303039557004
14272.0,-0.000534202015915312
14276.0,-0.006401432914614806
14280.0,-0.00653061895567375
14284.0,-0.04592526238138187
14288.0,-0.09447676200334643
14292.0,-0.1402027909351107
14296.0,-0.1838021753677983
14300.0,-0.017200166349740864
14304.0,0.11752137146344095
14308.0,0.21191115399310972
14312.0,0.3148057352284872
14316.0,0.41185658297483757
14320.0,0.5346152020308316
14324.0,0.6303125857369404
14328.0,0.728008293916257
14332.0,0.8359478023981
14336.0,0.9551140483497267
14340.0,1.0540753439139483
14344.0,0.9521670026243664
14348.0,0.8444425813454741
14352.0,0.7421074960772013
14356.0,0.6353359844449255
14360.0,0.5264584908241106
14364.0,0.41286554969182726
14368.0,0.3248495713123854
14372.0,0.2001934927634902
14376.0,0.11075100683637276
14380.0,0.004369503431058776
14384.0,-0.06712012107452722
14388.0,-0.12220224232129212
14392.0,-0.1666048636977865
14396.0,-0.25326113674662626
14400.0,-0.310059116648978
14404.0,-0.24340221279872912
14408.0,-0.19791437457263733
14412.0,-0.13632779020572083
14416.0,-0.06529199591184413
14420.0,-0.04622259501574141
14424.0,-0.042273855499814716
14428.0,-0.04329358153097872
14432.0,-0.05107929164167219
14436.0,-0.053633244039371926
14440.0,-0.035738350577586446
14444.0,-0.03340710133737142
14448.0,-0.039538350396693754
14452.0,-0.02437333376419343
14456.0,-0.038402604548745736
14460.0,-0.02292698620313129
14464.0,-0.020307235647548803
14468.0,-0.04114283425112815
14472.0,-0.02615400265673356
14476.0,-0.013327666949146888
14480.0,-0.01329359881317029
14484.0,-0.008039630120633058
14488.0,-0.008073358889786985
14492.0,0.0030267384259639214
14496.0,-0.012849856780312108
14500.0,-0.018833736916751026
14504.0,0.03327673569202037
14508.0,0.03906231704699616
14512.0,0.06114548233922293
14516.0,0.09383830296721099
14520.0,0.1030552123458126
14524.0,0.1251367990955959
14528.0,0.18262202211446488
14532.0,0.19726860919386321
14536.0,0.18960511978708566
14540.0,0.2160143380862265
14544.0,0.22397296426441649
14548.0,0.2560178336880625
14552.0,0.2575965917443721
14556.0,0.28355916280812676
14560.0,0.29960154852792004
14564.0,0.28817271828316593
14568.0,0.30181572300812226
14572.0,0.28029751443330286
14576.0,0.3105708057679163
14580.0,0.3158696067138733
14584.0,0.312987168362386
14588.0,0.3322342283306099
14592.0,0.3081914938079916
14596.0,0.30398743721371635
14600.0,0.2829121426351497
14604.0,0.28199407056045983
14608.0,0.26109023983239454
14612.0,0.2557667209044936
14616.0,0.23447500233138419
14620.0,0.24303140899571904
14624.0,0.20150331478016956
14628.0,0.17933563484820228
14632.0,0.17762507258974788
14636.0,0.1477254265191485
14640.0,0.11407569885192013
14644.0,0.0972458112956578
14648.0,0.0609470348439649
14652.0,0.03302248282068057
14656.0,0.02871255684810017
14660.0,0.02049003996718657
14664.0,-0.010767282452944098
14668.0,0.00554176576368883
14672.0,-0.016314098379282764
14676.0,0.0011603378211436333
14680.0,-0.01667756150681429
14684.0,-0.0031586208859576584
14688.0,-0.013045910730724142
14692.0,-0.004371478071315457
14696.0,-0.0017575497990276136
14700.0,-0.019269931066122327
14704.0,-0.00621652241722092
14708.0,0.009439732638839057
14712.0,-0.011953916493737194
14716.0,0.0015481557949716769
14720.0,0.002241576367943305
14724.0,0.018282866867248487
14728.0,0.0005624596211779952
14732.0,0.019238003315060665
14736.0,-6.276080041882882e-05
14740.0,0.00571479880612763
14744.0,0.00464902364739466
14748.0,-0.014901346506714014
14752.0,-0.012053558232673662
14756.0,0.007823672892959392
14760.0,0.0019574428065006963
14764.0,2.1408016718933837e-05
14768.0,0.017196623440299874
14772.0,-0.01514416611937915
14776.0,0.012432924541398082
14780.0,0.00345074526255897
14784.0,0.008765147995161674
14788.0,0.015766599831632557
14792.0,0.005388106763220021
14796.0,0.009311159660283844
14800.0,0.004674554383900469
14804.0,-0.005137966277496495
14808.0,0.01726819586891734
14812.0,-0.008280462042510416
14816.0,0.004152494326506913
14820.0,0.007434236385053108
14824.0,0.0015019310127558313
14828.0,0.011669432126962045
14832.0,0.0023721258724640087
14836.0,-0.01400249395887646
14840.0,-0.0027707016314398028
14844.0,0.007443435266167265
14848.0,-0.007325916882903134
14852.0,0.020209069494265975
14856.0,0.005163327755434976
14860.0,0.002963958562386144
14864.0,-0.02027120612581377
14868.0,0.0006692471089120464
14872.0,0.015992858139420207
14876.0,-0.020786915359899898
14880.0,-0.013095345729917494
14884.0,-0.0016422957141516094
14888.0,0.007926907708304605
14892.0,-0.008653191823447582
14896.0,0.014406601944906575
14900.0,0.0008481496102047364
14904.0,0.01742550927399919
14908.0,0.015230807553062648
14912.0,0.014717366762806995
14916.0,-0.0028561326656528973
14920.0,-0.0065405678715013986
14924.0,-0.0016234209102654101
14928.0,-0.014191867023540757
14932.0,0.0012133671682842666
14936.0,-0.005726465790819408
14940.0,-0.012498098413143095
14944.0,0.019161016654772586
14948.0,0.07067538650575644
14952.0,0.07670817370317756
14956.0,0.11944729824894083
14960.0,0.14653786368463473
14964.0,0.17734884133801943
14968.0,0.18245640025684473
14972.0,0.19931866632782078
14976.0,0.2245135114810212
14980.0,0.21210967548336893
14984.0,0.2371114483247364
14988.0,0.2398511634469832
14992.0,0.23000142159924136
14996.0,0.24891444995574893
15000.0,0.2361259540380745
15004.0,0.24203270709884592
15008.0,0.1924327780738367
15012.0,0.18072428126123655
15016.0,0.17677570699279527
15020.0,0.13704803821720243
15024.0,0.10922034537248854
15028.0,0.09411861425818839
15032.0,0.08539786249802354
15036.0,0.03265630746407646
15040.0,-0.0030811001070569304
15044.0,0.005004974575737889
15048.0,-0.01162176541705009
15052.0,0.00013285301122139314
15056.0,0.006778123478960478
15060.0,-0.01326326514874197
15064.0,0.006756571410082245
15068.0,0.007739525041085424
15072.0,0.018500142807230637
15076.0,-0.027219923931253158
15080.0,0.006634771993179188
15084.0,-0.022608207854066326
15088.0,-0.08446989272141565
15092.0,-0.116405189104234
15096.0,-0.18287509999474225
15100.0,0.004967524177907708
15104.0,0.09676884703398424
15108.0,0.21074064136840062
15112.0,0.2943927750656015
15116.0,0.3895515722874537
15120.0,0.5066181363579467
15124.0,0.6051086668528186
15128.0,0.6892148787588415
15132.0,0.8055539358888301
15136.0,0.8780049997753409
15140.0,0.9977228798775561
15144.0,0.8880122715463694
15148.0,0.7888696178747394
15152.0,0.6864774887043286
15156.0,0.6028723325314563
15160.0,0.4921890870749753
15164.0,0.3992077314220757
15168.0,0.29318609582699945
15172.0,0.20071706468384384
15176.0,0.0844142249833773
15180.0,-0.004124256645474244
15184.0,-0.06010756660626394
15188.0,-0.12113244868103741
15192.0,-0.17645122626876747
15196.0,-0.2478407139313527
15200.0,-0.28096002844468115
15204.0,-0.24058960530118192
15208.0,-0.19204623216114577
15212.0,-0.1344614872947782
15216.0,-0.07246427070827188
15220.0,-0.04860999442152492
15224.0,-0.03758875003628477
15228.0,-0.03691217056495799
15232.0,-0.033898953054279764
15236.0,-0.026653976460211705
15240.0,-0.03265663521771772
15244.0,-0.013284644315390046
15248.0,-0.02957853527769444
15252.0,-0.024427095876412612
15256.0,-0.024260131219581316
15260.0,-0.02350628811029744
15264.0,-0.021099540855165133
15268.0,-0.022362040543371185
15272.0,-0.016594630717833743
15276.0,-0.0021371768669465226
15280.0,-0.01551236485353175
15284.0,-0.02339241241495265
15288.0,-0.018702259030385818
15292.0,-0.0012739220649550295
15296.0,-0.016124548753636572
15300.0,0.0018799906162165658
15304.0,0.017629387650042565
15308.0,0.0380708819658106
15312.0,0.07432539023294371
15316.0,0.09564831824392618
15320.0,0.12007300107429673
15324.0,0.1316738092740601
15328.0,0.1627061321113814
15332.0,0.16453767871670089
15336.0,0.19179302865113365
15340.0,0.20340635624694164
15344.0,0.2229824032265846
15348.0,0.24659524148692305
15352.0,0.2593850787301115
15356.0,0.26814830811016555
15360.0,0.2886931357188471
15364.0,0.2855421718592379
15368.0,0.26394696794317013
15372.0,0.2913287180398281
15376.0,0.2883469518978158
15380.0,0.30100338739147964
15384.0,0.3128923375118148
15388.0,0.298255053800057
15392.0,0.3010906012880489
15396.0,0.2747978247593304
15400.0,0.2748632334572166
15404.0,0.2639161717394633
15408.0,0.2575581030629413
15412.0,0.24110374047600505
15416.0,0.2325356323738901
15420.0,0.22295540472286685
15424.0,0.19062136483082978
15428.0,0.18032197430752817
15432.0,0.13667810058656527
15436.0,0.15228617152251064
15440.0,0.13350652803085775
15444.0,0.10334617360287443
15448.0,0.08155774900632863
15452.0,0.044610721176468665
15456.0,0.033309688567425624
15460.0,0.016364026552436038
15464.0,-0.004530939758919204
15468.0,0.0062377573246892035
15472.0,0.0031717841341950947
15476.0,0.0025530426680264832
15480.0,0.014138285861748097
15484.0,0.004354726367198781
15488.0,0.0119520490670274
15492.0,0.0018316864636239271
15496.0,-0.00517386123356727
15500.0,-0.00909411202646098
15504.0,-0.002250499699537401
15508.0,0.0076272555043936235
15512.0,-0.002323617974590859
15516.0,0.0010875577123319932
15520.0,0.00782121358252064
15524.0,0.008012812021109254
15528.0,-0.024415056504933027
15532.0,-0.005249137710646428
15536.0,0.02102681058880118
15540.0,-0.005652154831848727
15544.0,-0.0015547372282769653
15548.0,-0.015077077764002498
15552.0,-0.0007106454390367511
15556.0,0.0020331344850497367
15560.0,0.01502359652395209
15564.0,0.015096364571763726
15568.0,-0.0033356923074029953
15572.0,-0.001963030722198961
15576.0,-0.016049045296036686
15580.0,-0.012629054808110723
15584.0,-0.004262491261862625
15588.0,-0.0049543233122521044
15592.0,-0.005307357250979221
15596.0,-0.0022988190257631357
15600.0,-0.006654754137244478
15604.0,-0.010795047801481293
15608.0,0.004404428672230545
15612.0,-0.008094718313577201
15616.0,0.004845095420537499
15620.0,0.014207990142663886
15624.0,-0.003948003249200356
15628.0,0.0042428929124452616
15632.0,-0.007878012095210506
15636.0,-0.0011205328032762552
15640.0,-0.01062595687494859
15644.0,-0.004748427967815903
15648.0,-0.0014201754480336849
15652.0,-0.013774293249260456
15656.0,0.007815271865162078
15660.0,0.019418778250803573
15664.0,0.006280333631313119
15668.0,-0.0037148878882962573
15672.0,-0.0006939297755741024
15676.0,-0.009335491373784158
15680.0,0.011184194106511293
15684.0,-0.005109670591833549
15688.0,0.008996367740955072
15692.0,-0.008831092317709007
15696.0,0.01277296504963247
15700.0,0.005540531970747898
15704.0,-0.006873822838084409
15708.0,0.020513866194815135
15712.0,0.01527844443151093
15716.0,-0.00475952770757274
15720.0,0.02305965669180168
15724.0,-0.0051424009236910396
15728.0,0.0010059068792310794
15732.0,-0.0030950747239104344
15736.0,-0.0034606005616811394
15740.0,-0.01024308940675891
15744.0,0.035956554428891986
15748.0,0.06235181313013246
15752.0,0.08254547383474192
15756.0,0.1351765594406361
15760.0,0.13972060648638296
15764.0,0.15478456675380284
15768.0,0.1867165340966683
15772.0,0.2114574903459347
15776.0,0.22934666079313493
15780.0,0.23360602278951748
15784.0,0.24867204316154834
15788.0,0.26693307487069173
15792.0,0.253896425739072
15796.0,0.24348471335665206
15800.0,0.22441422809470835
15804.0,0.22727869321229122
15808.0,0.20923813523304874
15812.0,0.19124660251799025
15816.0,0.1546397173493151
15820.0,0.15867062896792836
15824.0,0.11785024869220721
15828.0,0.08370188117127483
15832.0,0.06545264042256507
15836.0,0.027747223240860038
15840.0,0.00958257892790889
15844.0,-0.0034255911814854855
15848.0,0.009654463571533874
15852.0,-0.006540270251139935
15856.0,-0.010624066563317974
15860.0,0.006357755777109431
15864.0,-0.006982970210541996
15868.0,0.007941909526713128
15872.0,-0.002906651910467025
15876.0,0.009112247876128986
15880.0,0.006541680387101329
15884.0,-0.03580374825296472
15888.0,-0.08512062673076846
15892.0,-0.10968114840738988
15896.0,-0.16456830515316254
15900.0,3.768847248877783e-05
15904.0,0.09019419413575658
15908.0,0.17483478559832738
15912.0,0.2955326751038663
15916.0,0.3886098205590492
15920.0,0.48246409429188764
15924.0,0.5747385743433664
15928.0,0.6742848925769669
15932.0,0.760278334284812
15936.0,0.8585015354966026
15940.0,0.9684470074136302
15944.0,0.8564304011833501
15948.0,0.7833848994140671
15952.0,0.6792655131378902
15956.0,0.591224640973275
15960.0,0.47199903862029463
15964.0,0.3970145224077543
15968.0,0.3108377319217944
15972.0,0.20697654534223434
15976.0,0.09841086302078361
15980.0,-0.007869622149066394
15984.0,-0.06456261750727793
15988.0,-0.11855657438100227
15992.0,-0.17994346293825172
15996.0,-0.22750090412453158
16000.0,-0.29567272342737344
16004.0,-0.23640010467834552
16008.0,-0.18280165080051125
16012.0,-0.11700123077539587
16016.0,-0.06819490081679429
16020.0,-0.05422497953331605
16024.0,-0.027654782177969784
16028.0,-0.03492840645243151
16032.0,-0.044818665774187146
16036.0,-0.03405098980960163
16040.0,-0.026137922288501106
16044.0,-0.03879671999844492
16048.0,-0.027147535646706935
16052.0,-0.042733302289356956
16056.0,-0.03790422566887773
16060.0,-0.016275178636969593
16064.0,-0.012543937531296078
16068.0,-0.028406533755419336
16072.0,-0.023234432431263094
16076.0,-0.02795419361314809
16080.0,-0.006492799380910541
16084.0,0.004571978639419667
16088.0,-0.014096969316872397
16092.0,-0.004128205971287302
16096.0,-0.011894547141062972
16100.0,0.002458004499100866
16104.0,0.021637761883114864
16108.0,0.041226994974726
16112.0,0.06351366603213776
16116.0,0.07541370545862124
16120.0,0.11990116284237509
16124.0,0.1291538627042486
16128.0,0.14370090583842754
16132.0,0.16174246010871768
16136.0,0.1940183870965135
16140.0,0.20209167002755474
16144.0,0.23156426231342736
16148.0,0.22820997078736793
16152.0,0.2605211679337795
16156.0,0.2559789490271512
16160.0,0.2772778242871142
16164.0,0.2725005436117583
16168.0,0.29516057043355615
16172.0,0.26721876064227884
16176.0,0.29499193035847393
16180.0,0.30113544544505505
16184.0,0.28740041064212296
16188.0,0.27317711927662874
16192.0,0.28465368164375376
16196.0,0.27795101833802244
16200.0,0.26127885179589116
16204.0,0.2625017820854644
16208.0,0.24280624679535326
16212.0,0.2313734026200816
16216.0,0.2154947929721056
16220.0,0.2092227991292893
16224.0,0.19720117349679195
16228.0,0.17924237086846664
16232.0,0.13556315495419727
16236.0,0.13957400161445935
16240.0,0.10892489054529768
16244.0,0.0881521661438053
16248.0,0.08450376537498133
16252.0,0.038113603351809355
16256.0,0.0235750073069922
16260.0,0.0018100652410593715
16264.0,-0.010487224157902417
16268.0,0.008489565005602984
16272.0,-0.003725404886962675
16276.0,-0.003706326007855042
16280.0,-0.000371107085779019
16284.0,0.007545441304450387
16288.0,-0.0033718567771623617
16292.0,0.008171190827833994
16296.0,-0.005322169361864919
16300.0,-0.012077200066529055
16304.0,0.0091353811335017
16308.0,-0.004800582550042276
16312.0,0.03386084602464345
16316.0,-0.0018608475999516512
16320.0,0.021794921925251516
16324.0,-0.005650541986263567
16328.0,-0.00143525386554645
16332.0,-0.015845435558989655
16336.0,-0.009131173916974843
16340.0,0.020454831251677113
16344.0,0.014230676747345463
16348.0,0.016889093284279854
16352.0,-0.0032467853531563673
16356.0,0.004374919001775222
16360.0,0.014456226931956445
16364.0,0.0014049436401744762
16368.0,-0.009281158980770388
16372.0,-0.018430807654997158
16376.0,-0.030297852054206334
16380.0,-0.004560359601837856
16384.0,-0.007669976245318256
16388.0,0.008741373570433336
16392.0,0.0014245003748189263
16396.0,0.0011998641497166218
16400.0,0.010875266722794487
16404.0,0.013275062349864215
16408.0,-0.009295577403433269
16412.0,0.006838942010413307
16416.0,0.01460041621072862
16420.0,0.0022498947416710446
16424.0,-0.006721345409693598
16428.0,0.009659271993573963
16432.0,-0.0016587819538802357
16436.0,-0.004700015727562788
16440.0,0.005287852409514324
16444.0,0.0048802342662508085
16448.0,0.012425314237477303
16452.0,0.021191686092879716
16456.0,-0.00020224848390405477
16460.0,0.0031587130794895587
16464.0,-0.010206505146418663
16468.0,0.007831013035224207
16472.0,0.010790924661360073
16476.0,-0.01489479648617156
16480.0,-0.009824579877659239
16484.0,0.015852748285651228
16488.0,0.0008102096504907013
16492.0,0.009409125678176786
16496.0,0.01147107532563792
16500.0,-0.015199745788691056
16504.0,5.9503286014980996e-05
16508.0,0.009712828376332918
16512.0,-0.02267381048821393
16516.0,0.009537094541887708
16520.0,-0.0013301504210879076
16524.0,0.009348843258109597
16528.0,1.030541384429729e-05
16532.0,0.019031851215068785
16536.0,-0.019602013926716868
16540.0,0.0026195056319406433
16544.0,0.023374904954276573
16548.0,0.06005042372643021
16552.0,0.09442340472555463
16556.0,0.10847717034855178
16560.0,0.16578776652062302
16564.0,0.17308788431066252
16568.0,0.20514843706400254
16572.0,0.20826888181060524
16576.0,0.23493594882987504
16580.0,0.2587563192579777
16584.0,0.26016415339549437
16588.0,0.24755511019377707
16592.0,0.2691513639520989
16596.0,0.2557626686746462
16600.0,0.23352093611700883
16604.0,0.2411696187189315
16608.0,0.22125451486039832
16612.0,0.1913725595291929
16616.0,0.1850694506445771
16620.0,0.1396777729131606
16624.0,0.1255576835720443
16628.0,0.10481725091126265
16632.0,0.07129931280169956
16636.0,0.03899431273449173
16640.0,0.00037221185613829736
16644.0,-0.005062776695505554
16648.0,0.003945766119972374
16652.0,-0.008255287271018433
16656.0,0.0011241068641943508
16660.0,-6.341627368682261e-05
16664.0,0.01600156045253831
16668.0,-0.004995534474053461
16672.0,-0.016151521201669423
16676.0,0.010210541949107022
16680.0,-0.02441527524729333
16684.0,-0.05249441664469583
16688.0,-0.06987924122402159
16692.0,-0.12157120023309771
16696.0,-0.1667866929937585
16700.0,-0.0003515296286730278
16704.0,0.09112450054717998
16708.0,0.21419096963534276
16712.0,0.3135969072914982
16716.0,0.41717540613353415
16720.0,0.5038803839266818
16724.0,0.6151823107245098
16728.0,0.7178902562451863
16732.0,0.8176869288283053
16736.0,0.9129343354974453
16740.0,1.0365703663200534
16744.0,0.9377882762183883
16748.0,0.8203982838781636
16752.0,0.7174741150934938
16756.0,0.6279921380093602
16760.0,0.5286592297442954
16764.0,0.4201177064617255
16768.0,0.32494738248238075
16772.0,0.20676405883457222
16776.0,0.10994471364044836
16780.0,0.01787659108855652
16784.0,-0.0652381079119285
16788.0,-0.12349172707235194
16792.0,-0.19263050979256371
16796.0,-0.2542974958132204
16800.0,-0.3107153791585931
16804.0,-0.25642843815886207
16808.0,-0.19660187678208346
16812.0,-0.13170816251234355
16816.0,-0.0664198854123613
16820.0,-0.05383350935702506
16824.0,-0.04503112438419153
16828.0,-0.04489999458716002
16832.0,-0.05771376625648544
16836.0,-0.029653348075400314
16840.0,-0.05379938421559585
16844.0,-0.0336965152618524
16848.0,-0.02987811979287135
16852.0,-0.015448252090525263
16856.0,-0.03195447028075985
16860.0,-0.03577550406422939
16864.0,-0.013124500857873261
16868.0,-0.029811290547935167
16872.0,-0.004969509749459183
16876.0,0.0003927964315965614
16880.0,-0.017843472418606846
16884.0,-0.018324169358448675
16888.0,-0.006611751311746253
16892.0,-0.0029448483638547423
16896.0,0.00660938908056294
16900.0,-0.0021551332709149502
16904.0,0.027749588495514597
16908.0,0.0512132940211005
16912.0,0.06611110865207272
16916.0,0.10591107834173955
16920.0,0.11786591544224403
16924.0,0.12888867179857358
16928.0,0.1655975319766996
16932.0,0.18781049750306533
16936.0,0.1988948804937551
16940.0,0.22173611872741922
16944.0,0.22895259570883908
16948.0,0.24258776760886908
16952.0,0.2580473089862056
16956.0,0.28514315280595354
16960.0,0.29866020932133647
16964.0,0.3021853708279299
16968.0,0.29668925142015734
16972.0,0.3085259383749254
16976.0,0.30270525765166084
16980.0,0.31917115343955776
16984.0,0.30885530527660815
16988.0,0.3235148828657528
16992.0,0.3026689500838726
16996.0,0.3020001617208795
17000.0,0.30138133271732026
17004.0,0.2731005324161425
17008.0,0.25013767382962565
17012.0,0.2656570026438561
17016.0,0.23243391028559673
17020.0,0.22831057697114143
17024.0,0.2178692472610358
17028.0,0.18324012818393204
17032.0,0.1538178661182601
17036.0,0.13756540689780153
17040.0,0.1267037576087202
17044.0,0.10145841050278684
17048.0,0.058830423715952415
17052.0,0.03549864084190438
17056.0,0.043051812047479335
17060.0,-0.003899178434369507
17064.0,0.0031173913724971943
17068.0,-0.0036326763914359974
17072.0,-0.009103686391908462
