time,value
0.0,-0.009440458520511995
4.0,0.007872526641550704
8.0,0.011701278924020134
12.0,0.015071789175809258
16.0,-0.006895944062621511
20.0,0.012027192217712895
24.0,-0.007342653790392954
28.0,-0.00869055808773122
32.0,0.014882823556008907
36.0,-0.02507871333873017
40.0,-0.00011556487285963808
44.0,-0.014429651000851173
48.0,-0.007115364905818842
52.0,-0.007565664404948741
56.0,-0.0069789345370779915
60.0,0.001327563801135733
64.0,-0.024779337161430614
68.0,0.00431182940703749
72.0,0.0054875043713747415
76.0,0.0036294005027845506
80.0,0.0001850603600406358
84.0,-0.012633255292805096
88.0,0.00516398882647346
92.0,-0.0029374095762767713
96.0,-0.0020430881565992624
100.0,-0.007409841820944006
104.0,-0.008569201655720516
108.0,-0.009144644419458023
112.0,-0.0035829463645879835
116.0,0.006114302998115932
120.0,0.01092590219937689
124.0,0.019153659333131564
128.0,-0.011743388848518142
132.0,0.007970431653644403
136.0,-0.017176942631536886
140.0,0.0006662772434787756
144.0,-0.0015177871998580748
148.0,-0.017945099006870146
152.0,-0.004844208466733618
156.0,0.0013961831305158987
160.0,0.013738250679659036
164.0,0.009706540377230174
168.0,0.012951442698546657
172.0,0.012488308170899978
176.0,-0.008071220770595076
180.0,0.0018490067214867359
184.0,-0.0028076799445204293
188.0,0.01341634390467737
192.0,0.011665570040081334
196.0,-0.004594082460587637
200.0,-0.009813637173556187
204.0,0.0016269820022876995
208.0,0.028935214039317786
212.0,-0.01812828266739974
216.0,-0.004398270185691834
220.0,0.010158948129495476
224.0,0.00789549158188932
228.0,0.004940927791822539
232.0,-0.0029644619671165967
236.0,-0.02211765415250845
240.0,0.020959842009800805
244.0,0.005026406356554379
248.0,-0.0207717215861718
252.0,0.010837477196867371
256.0,-0.0016018571801091294
260.0,0.004784215275557277
264.0,-0.001289465531781839
268.0,0.0038074436162999436
272.0,0.005730963210783752
276.0,0.012911150088631182
280.0,-0.008057702555694627
284.0,0.0011571431995948732
288.0,-0.017726561829901382
292.0,0.016586257295278458
296.0,-0.009113931366818914
300.0,0.004697835463208721
304.0,0.004639914100856317
308.0,-0.004456632460454642
312.0,0.00617621049873744
316.0,-0.007306365723817534
320.0,0.01431350669686752
324.0,-0.001603788947104606
328.0,-0.005989123363721414
332.0,-0.00095613080695195
336.0,-0.0020358662439279814
340.0,0.008091653090531108
344.0,-0.008085172956618604
348.0,0.006846322503055422
352.0,-0.003324947454866713
356.0,0.0067569336566277866
360.0,-0.0028138042931185043
364.0,0.0015995735715020577
368.0,0.016153088424121602
372.0,0.01095669319056917
376.0,0.010871429442728505
380.0,-0.004312596486940964
384.0,-0.00203063761419199
388.0,-0.0047287570431863045
392.0,0.012457069023637378
396.0,-0.004532341242437232
400.0,-0.000925361862833551
404.0,-0.002027081778119402
408.0,-0.006891144015763728
412.0,-0.007003897184645791
416.0,-0.008564102465832887
420.0,-0.01551491055029174
424.0,-0.0011747706341797813
428.0,-0.003506755483845632
432.0,-0.00999887855159146
436.0,0.014075546472264057
440.0,-0.00352747264353679
444.0,0.0059913080977104915
448.0,-0.008427389136227245
452.0,-0.011115943965157787
456.0,0.0085394728434858
460.0,-0.0151636238288664
464.0,-0.018629830976819042
468.0,-0.010368648652447014
472.0,0.011281136788584643
476.0,0.0013709978845672225
480.0,0.014648444609009707
484.0,0.00907901103140344
488.0,-0.008708242074080682
492.0,0.006141135750127432
496.0,0.006740875163729239
500.0,0.0036942685049444965
504.0,0.003959839543098571
508.0,-0.0009809099193608304
512.0,0.0004126558061250908
516.0,-0.00038211215175542863
520.0,0.0028780054973528446
524.0,-0.013637597485797012
528.0,-0.001217156773705451
532.0,-0.0012484507066441587
536.0,0.0038251892763452606
540.0,0.012961100822612676
544.0,0.037194487031477444
548.0,0.070639897960603
552.0,0.0794204975575359
556.0,0.119614288416762
560.0,0.12959208676527734
564.0,0.17262704633506187
568.0,0.16673086796469336
572.0,0.2180995828036287
576.0,0.21844663428277664
580.0,0.2296158505371611
584.0,0.24080314315650284
588.0,0.23285270764539834
592.0,0.26307768030472856
596.0,0.2504654915349629
600.0,0.24653883375029864
604.0,0.23827466148262966
608.0,0.23311107269766204
612.0,0.19414597918607293
616.0,0.18468402039786977
620.0,0.13725363482135114
624.0,0.12603790089273614
628.0,0.076129276507061
632.0,0.057959949092494675
636.0,0.03435443030019192
640.0,-0.010851144945893471
644.0,0.0022041725545572585
648.0,-0.013353319635236935
652.0,0.016468031625719966
656.0,0.015429732775519437
660.0,-0.010749755658546524
664.0,-0.0058008909909356724
668.0,-0.007219961536670689
672.0,-0.001657691081942523
676.0,0.0005909379757699734
680.0,0.0021171542288685513
684.0,-0.045655609604552616
688.0,-0.07880863221303856
692.0,-0.13180443002010123
696.0,-0.1714808542700982
700.0,-0.011271133237575112
704.0,0.10756474101693075
708.0,0.17466289264625692
712.0,0.287209965516252
716.0,0.38813561015014736
720.0,0.4856803893915418
724.0,0.5986699326529814
728.0,0.712537976052213
732.0,0.7980188728772817
736.0,0.8960085896091735
740.0,1.0013086260200958
744.0,0.897953342414788
748.0,0.798226776031391
752.0,0.7131258983413457
756.0,0.5970831411725139
760.0,0.49226791291506655
764.0,0.4048619958088844
768.0,0.29581594281553386
772.0,0.19613104219359084
776.0,0.10377372285044312
780.0,-0.007232347336285137
784.0,-0.0772332039880823
788.0,-0.10545809969785515
792.0,-0.17947114218011598
796.0,-0.238041085092594
800.0,-0.29355466504649186
804.0,-0.24585127128206066
808.0,-0.18757421971404456
812.0,-0.10053122106695242
816.0,-0.05981706597086732
820.0,-0.05448357021384604
824.0,-0.04489549208006914
828.0,-0.04378213739374081
832.0,-0.051600550763079636
836.0,-0.030388996130418802
840.0,-0.017550674460680354
844.0,-0.02602554403708185
848.0,-0.04425883052116549
852.0,-0.03854109939496194
856.0,-0.02000556545922308
860.0,-0.016078254691927155
864.0,-0.005404671871007103
868.0,-0.01959481770695345
872.0,-0.008146012390809816
876.0,-0.01423227804722457
880.0,-0.02712909357914932
884.0,-0.0003349725880026841
888.0,-0.009603588660558082
892.0,-0.01112033684796828
896.0,-0.012928595180458228
900.0,-0.02190831644913017
904.0,0.002361229983895905
908.0,0.05335034395021886
912.0,0.06646346899357566
916.0,0.08532504777759982
920.0,0.1170737721859107
924.0,0.1350600035426645
928.0,0.15846926689470386
932.0,0.16923806339147657
936.0,0.1906386064451202
940.0,0.2100430115372001
944.0,0.2295357927361646
948.0,0.23938305236969123
952.0,0.24006603598953863
956.0,0.26751244117215345
960.0,0.2742669885703598
964.0,0.2705756863279047
968.0,0.2817492272307718
972.0,0.28783563501566656
976.0,0.2999973447361486
980.0,0.2839494428329254
984.0,0.284113291187286
988.0,0.2911817239787862
992.0,0.3025517929892655
996.0,0.2896299839779127
1000.0,0.2784459845450576
1004.0,0.27332857443578495
1008.0,0.26247839476632434
1012.0,0.22029167928060944
1016.0,0.23038064935479594
1020.0,0.21511992245461858
1024.0,0.19889275812277046
1028.0,0.17786361718238297
1032.0,0.1602134707274919
1036.0,0.1237070805513748
1040.0,0.0977416871877042
1044.0,0.07192827841760224
1048.0,0.07433902431328195
1052.0,0.049656344853559596
1056.0,0.01486616041482372
1060.0,0.030610752708881254
1064.0,0.014930666560057487
1068.0,-0.0055788226574912175
1072.0,0.0021227703431542077
1076.0,0.004827833320201517
1080.0,0.0016756290206867315
1084.0,-0.014073448613609325
1088.0,0.013453224359492352
1092.0,-0.005800887301547661
1096.0,-0.020836261100383616
1100.0,0.004723229542558402
1104.0,0.005818358901609708
1108.0,0.00036985871653293144
1112.0,-0.003547754631212078
1116.0,0.0011957931509416126
1120.0,-0.011977410994706878
1124.0,-0.012044198745367019
1128.0,-0.002305751640340393
1132.0,0.007863813357795416
1136.0,0.013871299321838662
1140.0,-0.008651301119376297
1144.0,0.012004016386494398
1148.0,-0.007259310376113229
1152.0,0.0025442024646952694
1156.0,0.0023047448328271398
1160.0,-0.010547002753926418
1164.0,0.009005424667338087
1168.0,0.015539390049943171
1172.0,-0.0018153731068198287
1176.0,-0.006096171804542819
1180.0,-0.0018714576412153373
1184.0,0.006076628830530768
1188.0,-0.0021733800273915703
1192.0,-0.0032527201633799664
1196.0,-0.02116358535961526
1200.0,-0.01118198970134604
1204.0,0.0009505303149900381
1208.0,-0.01687279435660637
1212.0,-0.004956303858991017
1216.0,-0.008639846947052691
1220.0,0.0035911490427614837
1224.0,0.01069423845813762
1228.0,0.0025774868423495273
1232.0,-0.012974558412698619
1236.0,-0.00032541852750744013
1240.0,-0.0005813801131297524
1244.0,0.002281268869799967
1248.0,0.030254331979254433
1252.0,0.0483368459205841
1256.0,0.08109231620066976
1260.0,0.11971008248056589
1264.0,0.14547678146544615
1268.0,0.17417540060710027
1272.0,0.21421241680232528
1276.0,0.21410934415088403
1280.0,0.22790113126989264
1284.0,0.23374500274542612
1288.0,0.26029094777621065
1292.0,0.24654954308912458
1296.0,0.25467662430194343
1300.0,0.24169883452802127
1304.0,0.25847290661061934
1308.0,0.22818630034352247
1312.0,0.2035457032385323
1316.0,0.18732930997233496
1320.0,0.16178676234970496
1324.0,0.13793950246990305
1328.0,0.11602096791827156
1332.0,0.09215422544478886
1336.0,0.057895232901646124
1340.0,0.050387975074268294
1344.0,-0.009664026503745178
1348.0,-0.008704487325953934
1352.0,-0.0014959962373158353
1356.0,-0.013570646099081077
1360.0,-0.006849529672377605
1364.0,0.004914145977879295
1368.0,0.004463884518071368
1372.0,-0.00795477444765354
1376.0,0.015958561508029833
1380.0,0.007273447689493827
1384.0,-0.004891193827629291
1388.0,-0.039168181379230296
1392.0,-0.07498800596823116
1396.0,-0.11389833277432262
1400.0,-0.16529105639939853
1404.0,0.012628848253025349
1408.0,0.09962774936837161
1412.0,0.2123167270495665
1416.0,0.31058425657045646
1420.0,0.40103415846276486
1424.0,0.5100647100967306
1428.0,0.5833733013666169
1432.0,0.699509532798007
1436.0,0.7927212947067802
1440.0,0.9075693006462652
1444.0,0.9968313698567559
1448.0,0.9116682145395599
1452.0,0.7923613902205389
1456.0,0.7102239929581705
1460.0,0.5902482770005292
1464.0,0.48877192645985446
1468.0,0.3930382445259542
1472.0,0.2984411583045335
1476.0,0.21408614110967092
1480.0,0.11213684713541403
1484.0,-0.0034051878353995374
1488.0,-0.07323618767493267
1492.0,-0.1300073963782332
1496.0,-0.1777617081131283
1500.0,-0.2529390663814742
1504.0,-0.3159570560908956
1508.0,-0.24584465106429776
1512.0,-0.1840479701993229
1516.0,-0.11380633621781819
1520.0,-0.04835125192924299
1524.0,-0.04985677540198652
1528.0,-0.03829448551113257
1532.0,-0.055315220990828605
1536.0,-0.0497157211795168
1540.0,-0.048714398835895206
1544.0,-0.03190494816775238
1548.0,-0.03712692571301775
1552.0,-0.026366426097906147
1556.0,-0.030777009817468167
1560.0,-0.02809084818929463
1564.0,-0.043625680828071486
1568.0,-0.032613322637062916
1572.0,-0.036644662447793214
1576.0,-0.028010900130833974
1580.0,-0.027233701037113894
1584.0,-0.01969310348437174
1588.0,-0.012532165908927109
1592.0,-0.025575006110574065
1596.0,0.002448344092271469
1600.0,0.005825026445474945
1604.0,-0.01943111771191265
1608.0,0.04144387947482039
1612.0,0.05881926265421464
1616.0,0.07854255257061421
1620.0,0.09151514894386481
1624.0,0.10472710493599446
1628.0,0.11853855597596988
1632.0,0.16467653371577184
1636.0,0.18986190685918738
1640.0,0.19693063198855407
1644.0,0.19860285159919713
1648.0,0.25349235842805257
1652.0,0.2534657859990541
1656.0,0.26259980587605647
1660.0,0.26644205395098
1664.0,0.2569409118111679
1668.0,0.2917990447409034
1672.0,0.2950374828847493
1676.0,0.2804963153674941
1680.0,0.29984913588744644
1684.0,0.29526495332005814
1688.0,0.3018188613813283
1692.0,0.31703484113876923
1696.0,0.2985279028329866
1700.0,0.2895419262303231
1704.0,0.28580593829840434
1708.0,0.2816235750036116
1712.0,0.25406732548755057
1716.0,0.24292091535215218
1720.0,0.23079675120271656
1724.0,0.22073173887369607
1728.0,0.20888715646635617
1732.0,0.1918326495652173
1736.0,0.14198133948579048
1740.0,0.12741819868587778
1744.0,0.09440793115169278
1748.0,0.09909466510768714
1752.0,0.0805567485339606
1756.0,0.05179075731942302
1760.0,0.01439325620765158
1764.0,0.005018129448914547
1768.0,-0.002972571187020956
1772.0,-0.0054912433451224955
1776.0,-0.005007398745455881
1780.0,3.8340991038334075e-05
1784.0,-0.0025282070287429423
1788.0,0.00033769336643163435
1792.0,0.007753130200166705
1796.0,0.0016326873066393561
1800.0,-0.0051434145995236605
1804.0,0.01442577920542168
1808.0,-0.006516350285611275
1812.0,0.010593687724399488
1816.0,0.004715557692808074
1820.0,0.0016657601604509029
1824.0,-0.005985879464951014
1828.0,0.004200421712686537
1832.0,-0.0012068783244402153
1836.0,-0.004013207098269908
1840.0,-0.007996297348683516
1844.0,0.00254479285398609
1848.0,0.0020989033028231945
1852.0,-0.0027529958072003554
1856.0,0.004859886915318775
1860.0,0.005876641683391212
1864.0,0.0178536612137947
1868.0,-0.010380431988025603
1872.0,0.01885220308454326
1876.0,0.002748426181904696
1880.0,0.005157807743778755
1884.0,0.0002900958407130822
1888.0,0.000988383671130236
1892.0,-0.020587981597030094
1896.0,-0.009517990162805232
1900.0,0.009334790435749115
1904.0,0.0015887474866082027
1908.0,0.009079208305865831
1912.0,0.010424675124132969
1916.0,0.01271044698237913
1920.0,0.010084100659216678
1924.0,0.007367918882138884
1928.0,0.0033051209537751803
1932.0,-0.0021805255601320805
1936.0,-0.01633300984622343
1940.0,-0.008083209875430993
1944.0,0.00661094788522231
1948.0,0.0054850044324862915
1952.0,0.048196750315089326
1956.0,0.08645908591065639
1960.0,0.07633822621128825
1964.0,0.11100244338908133
1968.0,0.13093538745502034
1972.0,0.1734688729046641
1976.0,0.20810613807913636
1980.0,0.20085780947309642
1984.0,0.23941725259039537
1988.0,0.2406427867139864
1992.0,0.2464444428000564
1996.0,0.24782336634593724
2000.0,0.24896322484577205
2004.0,0.22480869354583688
2008.0,0.23883619320223037
2012.0,0.2441569309371095
2016.0,0.2119220020786763
2020.0,0.19717158512005972
2024.0,0.18698466115223378
2028.0,0.14961679282691348
2032.0,0.1206729187451238
2036.0,0.11367964320620094
2040.0,0.06193564711448688
2044.0,0.020515572871372567
2048.0,-0.018583909508880985
2052.0,0.0044566427397015815
2056.0,-0.00881609311902666
2060.0,0.006616183120608858
2064.0,-0.00814700687722075
2068.0,0.010951325007779183
2072.0,0.01265617356907362
2076.0,0.01080950623781468
2080.0,-0.006725987633260111
2084.0,0.015433693921515794
2088.0,-0.0027510203803125764
2092.0,-0.044489493580072155
2096.0,-0.07392865162677273
2100.0,-0.11668953961209999
2104.0,-0.15634329121147317
2108.0,-0.007743726117591933
2112.0,0.11021326646216553
2116.0,0.20513924858602373
2120.0,0.3068392212961256
2124.0,0.42338661987443266
2128.0,0.522711785576284
2132.0,0.6034017874598577
2136.0,0.7176826176050453
2140.0,0.8319110724865325
2144.0,0.9170751587120675
2148.0,1.020918361184893
2152.0,0.9274920278516028
2156.0,0.8110707430330696
2160.0,0.6996845062781166
2164.0,0.6164283624889535
2168.0,0.5054068022867102
2172.0,0.40462808634942943
2176.0,0.3115905300864683
2180.0,0.21629515698051693
2184.0,0.09808637451328316
2188.0,0.019143749693078187
2192.0,-0.07132921271187077
2196.0,-0.1106551545195881
2200.0,-0.21236133586997002
2204.0,-0.2507644094839585
2208.0,-0.2945283464668381
2212.0,-0.2428403341546415
2216.0,-0.189207030965738
2220.0,-0.11784725432226818
2224.0,-0.055537336104176195
2228.0,-0.05106815882827788
2232.0,-0.04107921565772639
2236.0,-0.057445799367432784
2240.0,-0.04300712388400973
2244.0,-0.07120068122186188
2248.0,-0.03803306025863414
2252.0,-0.021755035751336606
2256.0,-0.03347431028153667
2260.0,-0.022659942431762226
2264.0,-0.029165146392252688
2268.0,-0.028634702164224944
2272.0,-0.018793010579050876
2276.0,-0.009484393578040136
2280.0,-0.031913302385150014
2284.0,-0.016097109792679608
2288.0,-0.02205533239543371
2292.0,-0.008445966563840966
2296.0,-0.009119955855060348
2300.0,-0.006416534110304264
2304.0,0.004959815311542775
2308.0,-0.008391998732883628
2312.0,0.022573821016162832
2316.0,0.05090067329310873
2320.0,0.0716027197413855
2324.0,0.10408415933711515
2328.0,0.10963913470509451
2332.0,0.1459399084999769
2336.0,0.17685044689897716
2340.0,0.17645669500817654
2344.0,0.19423862166713746
2348.0,0.20658678074962553
2352.0,0.22926792895968395
2356.0,0.2515210351186556
2360.0,0.2595097660776896
2364.0,0.27907738131581183
2368.0,0.2738791306295702
2372.0,0.2785394779783772
2376.0,0.3158867027782019
2380.0,0.30653337014782855
2384.0,0.28836689114088954
2388.0,0.31858715981794833
2392.0,0.29250724489278684
2396.0,0.29066766174919767
2400.0,0.2775799093131379
2404.0,0.2836549020495935
2408.0,0.28363689573528655
2412.0,0.2750555285177344
2416.0,0.2558871745231669
2420.0,0.2628036829819279
2424.0,0.24139940832415027
2428.0,0.20949170360952427
2432.0,0.2136745462299507
2436.0,0.1690466779722976
2440.0,0.14708528273616456
2444.0,0.1622300443973962
2448.0,0.10172970336553766
2452.0,0.0963722824479066
2456.0,0.061848366206190546
2460.0,0.04408529674785983
2464.0,0.01255116946366762
2468.0,-0.01081586625216424
2472.0,0.008388684594272286
2476.0,-0.0191915674637942
2480.0,0.007221029355616525
2484.0,0.013655332173974721
2488.0,0.0013487693371919786
2492.0,-0.001984514887128858
2496.0,-0.004378966103527015
2500.0,-0.0014131457266401907
2504.0,0.011350614499428069
2508.0,0.00604485525044478
2512.0,-0.009364937656174794
2516.0,0.0035165701045484243
2520.0,-0.012991271349574547
2524.0,0.0075015785395241225
2528.0,0.001504678338976742
2532.0,0.00844548432178037
2536.0,0.009157552342211968
2540.0,0.0005471642285148899
2544.0,-0.0009240088009151012
2548.0,-0.003492247553321636
2552.0,-0.002700562239212899
2556.0,-0.01802717589173927
2560.0,0.005323883098674439
2564.0,-0.009314166257969133
2568.0,-0.008323540445131958
2572.0,-0.015154566210316344
2576.0,-0.00016623109911107886
2580.0,0.004754619022613872
2584.0,-0.0018152792386448566
2588.0,0.003324548808327288
2592.0,-0.01762929274959401
2596.0,0.006156482345935458
2600.0,0.0014000781708948828
2604.0,-0.018833647209046497
2608.0,-0.0016264237801659831
2612.0,0.006530733922763347
2616.0,-0.012024769273256297
2620.0,-0.005123634801702037
2624.0,0.026478910329190447
2628.0,-0.010436082666652934
2632.0,-4.773219570807949e-05
2636.0,-0.005184405435164331
2640.0,0.0031049410559187214
2644.0,0.0013740314092646883
2648.0,-0.009370884808214295
2652.0,-0.003369207524596314
2656.0,0.02814298423450998
2660.0,0.08005019039078695
2664.0,0.0923078110858055
2668.0,0.13673321798392066
2672.0,0.15217480913109746
2676.0,0.18282670789665068
2680.0,0.18603572978140182
2684.0,0.2061247084849093
2688.0,0.2385729491913671
2692.0,0.25080873891945693
2696.0,0.2632650151272781
2700.0,0.2596542321031286
2704.0,0.24855694256636474
2708.0,0.2698564855821453
2712.0,0.25088745828821873
2716.0,0.2351402989835923
2720.0,0.21487013180241962
2724.0,0.2034623282096365
2728.0,0.17548034358174106
2732.0,0.15113418838195397
2736.0,0.12854080068699422
2740.0,0.09814532795634118
2744.0,0.0704928970941406
2748.0,0.039934033665861506
2752.0,-0.014157448966833552
2756.0,0.008802524538729548
2760.0,0.017875133161959933
2764.0,0.00392216030661672
2768.0,0.00015709116176453657
2772.0,-0.015325207401053607
2776.0,0.0028645344942340167
2780.0,-0.003545116935041749
2784.0,-0.0038035870270911377
2788.0,-0.004133390408249651
2792.0,-0.009218833811094758
2796.0,-0.038722782060947314
2800.0,-0.09192788585502049
2804.0,-0.14132947159096484
2808.0,-0.1670007732772443
2812.0,-0.0002530447160360788
2816.0,0.10554628470407128
2820.0,0.22115524969734093
2824.0,0.31280442428785094
2828.0,0.4140508522212578
2832.0,0.5265580570588229
2836.0,0.6255928707242907
2840.0,0.7309123198739903
2844.0,0.8283487388172935
2848.0,0.925398484296484
2852.0,1.0336248228449132
2856.0,0.9388457306654268
2860.0,0.8426419758699385
2864.0,0.7243151215293357
2868.0,0.6191534623542624
2872.0,0.5206044431477449
2876.0,0.42328318861809155
2880.0,0.320676777065255
2884.0,0.19584577131318776
2888.0,0.09239831229145998
2892.0,-0.019940966570512815
2896.0,-0.05562950332536226
2900.0,-0.11204744805332605
2904.0,-0.19281954096272952
2908.0,-0.24728367338873586
2912.0,-0.31739213521615883
2916.0,-0.23797388019145854
2920.0,-0.18786465677014966
2924.0,-0.14325281291418593
2928.0,-0.059085712074073496
2932.0,-0.06132116410692406
2936.0,-0.045412156829322696
2940.0,-0.06923635213294685
2944.0,-0.05909875855792948
2948.0,-0.044155548855262274
2952.0,-0.04353174880225443
2956.0,-0.05122697294491916
2960.0,-0.031781183947347275
2964.0,-0.018862342259614452
2968.0,-0.034607916605367745
2972.0,-0.018349084571681457
2976.0,-0.02978467354674589
2980.0,-0.020847071954268562
2984.0,-0.023671984558496405
2988.0,-0.027865990249813764
2992.0,-0.011548276509603718
2996.0,-0.017389207391824833
3000.0,-0.0020628893178479364
3004.0,-0.0003639159471436216
3008.0,-0.0036711720006084667
3012.0,0.0019872652861363314
3016.0,0.014418582390963355
3020.0,0.04669502906966355
3024.0,0.0770917597063385
3028.0,0.10605292084667453
3032.0,0.12742869383538932
3036.0,0.15316512230449708
3040.0,0.1531599595028869
3044.0,0.18602510607271477
3048.0,0.2109854022511569
3052.0,0.21511186379489244
3056.0,0.23042749807556992
3060.0,0.2568940512599368
3064.0,0.26603527763703433
3068.0,0.27135622576113405
3072.0,0.29254255267045876
3076.0,0.29148719878631885
3080.0,0.3087963829346197
3084.0,0.31778968629389365
3088.0,0.32960579761273273
3092.0,0.3108816924926774
3096.0,0.29640221875818434
3100.0,0.30610464636982365
3104.0,0.30015279945707823
3108.0,0.27682459586274544
3112.0,0.2725821051699876
3116.0,0.2892637523508981
3120.0,0.2561180649142497
3124.0,0.23713218857431023
3128.0,0.2521077933382326
3132.0,0.22189358287672897
3136.0,0.19991324787539683
3140.0,0.17980632902879398
3144.0,0.14331798147316274
3148.0,0.14209482833054385
3152.0,0.1177485267798001
3156.0,0.08171177195392416
3160.0,0.06812877999283706
3164.0,0.07145220786991585
3168.0,0.024201392665060724
3172.0,0.003647247149846018
3176.0,-0.002174779746162361
3180.0,0.0006343618694470558
3184.0,-0.005462959852685733
3188.0,-0.0023066135775044526
3192.0,0.010677512918989374
3196.0,0.004880108542142992
3200.0,0.003030860896847346
3204.0,0.0018151011000173412
3208.0,-0.00011525832034962088
3212.0,0.013467317515831596
3216.0,-0.0039687624800475866
3220.0,-0.0067678040091025665
3224.0,-0.013794494152022664
3228.0,-0.014008407475351115
3232.0,-0.00848487894343818
3236.0,0.008935019663771436
3240.0,0.007751683764249643
3244.0,-0.004162777535594254
3248.0,0.004463765988695977
3252.0,0.008814985718219415
3256.0,0.00459887880555079
3260.0,-0.012155254616365092
3264.0,-0.0037125693135208046
3268.0,0.007912948463898709
3272.0,-0.0008357548042671717
3276.0,0.008119993697257221
3280.0,-0.0008089609832215629
3284.0,0.01175087444763239
3288.0,-0.004843410520899097
3292.0,0.0022398371506138514
3296.0,0.007542320524464033
3300.0,0.008157912608903481
3304.0,-0.000368102907825081
3308.0,0.004927136080201396
3312.0,0.0050034833529401055
3316.0,8.721298033798453e-05
3320.0,-0.006397271759732734
3324.0,0.0001277183763013677
3328.0,8.536063994953188e-05
3332.0,0.002133256288367497
3336.0,-0.006591951104641961
3340.0,-0.00045767013355789475
3344.0,-0.0036102201398689137
3348.0,0.0010516649691559837
3352.0,0.010911992384796811
3356.0,-0.007183438231513399
3360.0,0.0319522880503753
3364.0,0.05912132899534229
3368.0,0.10891671036333504
3372.0,0.131424096001103
3376.0,0.16357490953551335
3380.0,0.17489385831002538
3384.0,0.21143116732096937
3388.0,0.21714895572847234
3392.0,0.2271355567432784
3396.0,0.23618278617037428
3400.0,0.2509964485503296
3404.0,0.2606910990021786
3408.0,0.2602057044772339
3412.0,0.25278188127604456
3416.0,0.24283349800040652
3420.0,0.23356689456962612
3424.0,0.2121006003282249
3428.0,0.17626446171522664
3432.0,0.17384985012630974
3436.0,0.16087918572609744
3440.0,0.13895329245929838
3444.0,0.11046012356057304
3448.0,0.06774513517296109
3452.0,0.013239493608244769
3456.0,-0.00044608637651784847
3460.0,0.0034319168306988597
3464.0,-0.00022410018404106662
3468.0,0.0032075783138044356
3472.0,-0.018420570516089613
3476.0,0.005429607231167609
3480.0,0.010836759690744947
3484.0,0.002150058086994533
3488.0,0.016024538730419792
3492.0,0.009638315327923844
3496.0,-0.0012021899955432286
3500.0,-0.030633736259220244
3504.0,-0.0851315673147073
3508.0,-0.11851002918686247
3512.0,-0.1634390267029304
3516.0,0.017308371069467268
3520.0,0.09676525581280583
3524.0,0.18748025397246915
3528.0,0.2835972531618449
3532.0,0.41860529658830165
3536.0,0.513162602340188
3540.0,0.6227415018585521
3544.0,0.7164952117729736
3548.0,0.8260564663244888
3552.0,0.9379415166993227
3556.0,1.0295991641532096
3560.0,0.9432466514477132
3564.0,0.8345001826116183
3568.0,0.7185729026658567
3572.0,0.6264459789906364
3576.0,0.5171184773505458
3580.0,0.41206432035222995
3584.0,0.3087800923859867
3588.0,0.20676031311617113
3592.0,0.08480939520851687
3596.0,-0.005262566981021164
3600.0,-0.06846880534131637
3604.0,-0.1161284262473541
3608.0,-0.18994147474939616
3612.0,-0.2478929004139257
3616.0,-0.2932002826607745
3620.0,-0.25832646648220015
3624.0,-0.17720259474235245
3628.0,-0.1186146754601318
3632.0,-0.06982007519392562
3636.0,-0.05649528007846863
3640.0,-0.048776653698339785
3644.0,-0.029199048012804273
3648.0,-0.042247243942051746
3652.0,-0.042256678449509075
3656.0,-0.03003061223507437
3660.0,-0.025222878782357752
3664.0,-0.039239204301284
3668.0,-0.02743823708678765
3672.0,-0.025225608826487257
3676.0,-0.012970312577937407
3680.0,-0.01831158038723903
3684.0,-0.017757863743961336
3688.0,-0.02461457917363073
3692.0,-0.0005261679254604124
3696.0,-0.005260877547785154
3700.0,-0.015669247383914002
3704.0,-0.005537352442895011
3708.0,-0.021979739153289775
3712.0,0.0027673896902263803
3716.0,-0.014662121748795123
3720.0,0.02016733260461336
3724.0,0.03508687522873344
3728.0,0.08027600048388171
3732.0,0.09281367300562993
3736.0,0.10236983755017864
3740.0,0.1387343291773837
3744.0,0.15354391975188497
3748.0,0.1878975688751906
3752.0,0.20350284343615574
3756.0,0.21503325831825837
3760.0,0.2357767432486271
3764.0,0.25425983736007773
3768.0,0.2690163635450001
3772.0,0.2891927119290186
3776.0,0.27812134386104553
3780.0,0.318965616872418
3784.0,0.29518009061318295
3788.0,0.32675328795233305
3792.0,0.3039906871720909
3796.0,0.3265705189121131
3800.0,0.3056212718969501
3804.0,0.31663403573923754
3808.0,0.31262653168837007
3812.0,0.3010909625527531
3816.0,0.28539253722586566
3820.0,0.2781769673387637
3824.0,0.2761411742968647
3828.0,0.263324773961868
3832.0,0.24235063838994583
3836.0,0.22134696558715253
3840.0,0.2085044804492597
3844.0,0.18792634053334145
3848.0,0.17037880927894467
3852.0,0.1356192930087251
3856.0,0.10105215342927501
3860.0,0.10916160468971742
3864.0,0.07607441126815259
3868.0,0.04223906385452512
3872.0,0.01910263414034933
3876.0,-0.006420831074800051
3880.0,0.012531586878346284
3884.0,-0.0048549491088278
3888.0,-0.00304405820461521
3892.0,0.006029593949572687
3896.0,-0.010297211779788026
3900.0,-0.011101143661357423
3904.0,-0.010938761142867291
3908.0,-0.009246163027754188
3912.0,-0.0103883043125495
3916.0,-0.00033116814280357334
3920.0,0.014168562423255981
3924.0,0.00654415113551537
3928.0,0.005249173106849362
3932.0,-0.0007271886520858711
3936.0,0.00357651557983192
3940.0,0.0027350372693843265
3944.0,-0.004598736944955146
3948.0,-0.002845835619133708
3952.0,0.00025560028898827583
3956.0,-0.009713177831453408
3960.0,0.006242595956808148
3964.0,-0.003496801788124549
3968.0,0.012787256510897268
3972.0,0.0036054708659207686
3976.0,-0.00038141922354786883
3980.0,0.0030699238367109757
3984.0,-0.004951528430600061
3988.0,-0.010633652748710858
3992.0,0.008590983292822528
3996.0,-0.003723345064093491
4000.0,0.005240366678935986
4004.0,-0.003999759087397541
4008.0,-0.01201997532447049
4012.0,0.0050094129766260044
4016.0,0.008812958420199446
4020.0,-0.010769192800320437
4024.0,-0.008698641475206765
4028.0,-0.003768240613001326
4032.0,0.0022715102236720622
4036.0,0.008594503315352098
4040.0,0.006579989657279302
4044.0,0.0032096299824647505
4048.0,0.007755528997372024
4052.0,-0.012044688289606236
4056.0,-0.007280262118639743
4060.0,-0.00894333998769545
4064.0,0.03157988705177815
4068.0,0.06648813411132312
4072.0,0.09932297831779187
4076.0,0.11515767614729346
4080.0,0.12499575609338304
4084.0,0.1649405450073883
4088.0,0.19632868312374407
4092.0,0.19473843976973176
4096.0,0.23880034971889183
4100.0,0.2498282078827478
4104.0,0.2466021045914805
4108.0,0.24623194613999536
4112.0,0.26337154300667764
4116.0,0.23827299966141838
4120.0,0.2414391417807578
4124.0,0.2198844963319927
4128.0,0.2009064763602965
4132.0,0.18215502602283556
4136.0,0.15609539284517976
4140.0,0.16713374987224378
4144.0,0.10947073382968327
4148.0,0.09779974863516283
4152.0,0.0671443400913679
4156.0,0.023019657372494916
4160.0,-0.006422350862454872
4164.0,0.0005603100903857901
4168.0,-0.0015705810916814274
4172.0,-0.000604604882595012
4176.0,-0.008874103148032943
4180.0,0.0055776157399288154
4184.0,-0.014709566262199127
4188.0,-0.0046988747316078164
4192.0,-0.001295397769100099
4196.0,0.01996742451542767
4200.0,0.0014333964428455204
4204.0,-0.04289572574640011
4208.0,-0.09607566965116485
4212.0,-0.12147924434996497
4216.0,-0.15333077262056313
4220.0,0.0017224512736562657
4224.0,0.09264713654468752
4228.0,0.18455436886060267
4232.0,0.301004642467072
4236.0,0.4182550672798564
4240.0,0.5070401429436379
4244.0,0.5946187547928069
4248.0,0.6914484641009025
4252.0,0.7933477303663914
4256.0,0.8952268727810222
4260.0,1.000194170783333
4264.0,0.910017220082734
4268.0,0.8078376322381554
4272.0,0.6928462753855218
4276.0,0.6023932220523499
4280.0,0.4735590531752822
4284.0,0.40603274481132057
4288.0,0.30256545899955567
4292.0,0.19727420203234694
4296.0,0.11548652786995955
4300.0,0.0034927457190679777
4304.0,-0.06876966301065596
4308.0,-0.1169926183039002
4312.0,-0.17636487335305803
4316.0,-0.23719803863972228
4320.0,-0.3010225111049286
4324.0,-0.23477425113010822
4328.0,-0.17576631040464363
4332.0,-0.11592814413997674
4336.0,-0.06074974186118455
4340.0,-0.060612059133097015
4344.0,-0.0565793310056536
4348.0,-0.057703145642809234
4352.0,-0.059730994845469385
4356.0,-0.041688856751919606
4360.0,-0.03696513259426126
4364.0,-0.0374721334389178
4368.0,-0.028402995399870824
4372.0,-0.04605577170480993
4376.0,-0.029043596395289115
4380.0,-0.029998710300983934
4384.0,-0.03029326384544498
4388.0,-0.02990492589405499
4392.0,-0.015681693715619876
4396.0,-0.01720665982391359
4400.0,-0.0042324233228536595
4404.0,-0.023991597238775725
4408.0,-0.006454361247446671
4412.0,0.012609082229327752
4416.0,-0.007611281872015607
4420.0,0.006554487021442808
4424.0,0.025500708014756526
4428.0,0.06060583992069729
4432.0,0.07026412946124175
4436.0,0.10932528558359658
4440.0,0.11537120241840475
4444.0,0.14498863530715683
4448.0,0.1566923367480691
4452.0,0.16715019071796888
4456.0,0.1944937430102915
4460.0,0.20266678156619403
4464.0,0.2294005247713469
4468.0,0.25548089328137324
4472.0,0.2260115056886789
4476.0,0.27816997406223626
4480.0,0.27962142939686196
4484.0,0.29049704849022767
4488.0,0.2889362182556017
4492.0,0.2862797434588308
4496.0,0.29544509556516485
4500.0,0.29355686470000814
4504.0,0.30960164412661606
4508.0,0.2839680481058208
4512.0,0.2887322670617059
4516.0,0.2690987613212126
4520.0,0.2796785355934597
4524.0,0.25617603359014174
4528.0,0.26701616358528757
4532.0,0.22907645759020112
4536.0,0.23002530415751818
4540.0,0.20496696514666332
4544.0,0.191507549625571
4548.0,0.18493294347877254
4552.0,0.15241658280365497
4556.0,0.13028307307849707
4560.0,0.10760344064517295
4564.0,0.10028644962755899
4568.0,0.07659473400743688
4572.0,0.042857426116715586
4576.0,0.02836662212405312
4580.0,-0.011984778849663535
4584.0,-0.010482062144893792
4588.0,0.0043453037889458375
4592.0,0.004082705549439982
4596.0,-0.011229899397912814
4600.0,-0.01149058646912865
4604.0,0.0014743727385790376
4608.0,0.008572118881551355
4612.0,0.00643964811679593
4616.0,-0.0068839132898678435
4620.0,0.016641319905424185
4624.0,-0.012341023019636885
4628.0,-0.0069639426452180134
4632.0,0.0028180001701900857
4636.0,0.0055002388376736745
4640.0,0.002146180098938117
4644.0,0.008975690333832788
4648.0,-0.00894302117679887
4652.0,0.01278631179954716
4656.0,-0.00968683582441591
4660.0,0.005096204181805854
4664.0,0.0008737777105074446
4668.0,-0.0036633559254863907
4672.0,0.021654352403564864
4676.0,0.003911139805096807
4680.0,-0.022763108569327818
4684.0,0.0037341817042880715
4688.0,0.006374538414556211
4692.0,-0.0031311220744319724
4696.0,-0.000127400509084579
4700.0,-0.0004170841706621363
4704.0,0.011592966254491785
4708.0,0.0015405310437086798
4712.0,-0.005057512136876875
4716.0,-0.003936473791847675
4720.0,-0.006593281069338058
4724.0,0.004664579907887454
4728.0,0.01783238919312792
4732.0,0.010224350956602221
4736.0,-0.0017611826298019474
4740.0,0.0072266996830212425
4744.0,0.015848899452007143
4748.0,0.015011586642693196
4752.0,-0.007813835238157162
4756.0,0.005222310623268211
4760.0,0.010704897792578025
4764.0,0.012416235279743072
4768.0,0.03141691318907822
4772.0,0.0593969225410091
4776.0,0.08566405185332429
4780.0,0.14057516698458772
4784.0,0.1368951774842585
4788.0,0.1648998749552923
4792.0,0.20796217514068308
4796.0,0.2008280902158252
4800.0,0.2198492091310121
4804.0,0.234500604474147
4808.0,0.23886856889490535
4812.0,0.23401429727556428
4816.0,0.24469121658621346
4820.0,0.2431455352562043
4824.0,0.2237719158659034
4828.0,0.22502469511104845
4832.0,0.20118235587116218
4836.0,0.17940937713254795
4840.0,0.16239694320480771
4844.0,0.1460730583844376
4848.0,0.11139101356126474
4852.0,0.08394095795021066
4856.0,0.07318817007194442
4860.0,0.042113064927484206
4864.0,-0.0012357868843745413
4868.0,0.02000513908526776
4872.0,-0.0035165007486570366
4876.0,0.020785364005025557
4880.0,0.01661779969723322
4884.0,-0.005427180712487766
4888.0,-0.006887854676200934
4892.0,0.002982064993447878
4896.0,-0.0009123778402167616
4900.0,0.009650074214681555
4904.0,0.02459866327252721
4908.0,-0.03368563695428089
4912.0,-0.07432718290382152
4916.0,-0.11969192892757348
4920.0,-0.14042213557434993
4924.0,0.012786577303333052
4928.0,0.09431140614231637
4932.0,0.21489470714063516
4936.0,0.315985249843584
4940.0,0.39558888146155313
4944.0,0.4870348563117633
4948.0,0.5825540717443419
4952.0,0.6689953550190816
4956.0,0.7741621929744492
4960.0,0.8796457118084758
4964.0,0.9665852307822702
4968.0,0.8747137098907976
4972.0,0.7917369311714098
4976.0,0.7029334354726232
4980.0,0.5988601850965394
4984.0,0.4965086936058223
4988.0,0.39476660286353094
4992.0,0.28311020512006857
4996.0,0.1927393605922438
5000.0,0.08481716982036595
5004.0,-0.0051910679916373275
5008.0,-0.06024848773290476
5012.0,-0.1310455504901211
5016.0,-0.17923606118285634
5020.0,-0.2374498103607947
5024.0,-0.2849517004862339
5028.0,-0.22256810055565385
5032.0,-0.17856511452782153
5036.0,-0.09829134679848092
5040.0,-0.06709776245279235
5044.0,-0.04259966573465173
5048.0,-0.04622615182190372
5052.0,-0.041028820813199945
5056.0,-0.05473339639808567
5060.0,-0.04944295697058007
5064.0,-0.018220857431851496
5068.0,-0.02213774666939814
5072.0,-0.04084628543780161
5076.0,-0.03441465820010544
5080.0,-0.006871695301425788
5084.0,-0.023340735243562834
5088.0,-0.013989547660252254
5092.0,-0.024345427034592873
5096.0,0.006044955637001328
5100.0,-0.0021560051997676754
5104.0,-0.008171400707033847
5108.0,-0.0017058920324251724
5112.0,-0.005117391946093652
5116.0,0.009587277541337895
5120.0,0.012105608363473196
5124.0,-0.007309050039542852
5128.0,0.03469868939052397
5132.0,0.045636523741877606
5136.0,0.067805581754675
5140.0,0.09540073168264397
5144.0,0.12717539284951637
5148.0,0.12931590882424643
5152.0,0.1604715293088638
5156.0,0.19097575235407008
5160.0,0.19283829411411466
5164.0,0.20547046046580375
5168.0,0.21136210654361054
5172.0,0.230317961467852
5176.0,0.2514365450482068
5180.0,0.2542148894104796
5184.0,0.27337107050067144
5188.0,0.26958023809302567
5192.0,0.2855010228334706
5196.0,0.29828918433654183
5200.0,0.28802826346433974
5204.0,0.27465781365174363
5208.0,0.2963039720962652
5212.0,0.2916663997704967
5216.0,0.28761782745442266
5220.0,0.2853849093427002
5224.0,0.28985969192239663
5228.0,0.24910122421268407
5232.0,0.24603886256765606
5236.0,0.23777289159429932
5240.0,0.21769222282805475
5244.0,0.22639630442336448
5248.0,0.19218472135793524
5252.0,0.1549777099898217
5256.0,0.1423840839714767
5260.0,0.13131362482593936
5264.0,0.11721410400169696
5268.0,0.08739962251583386
5272.0,0.06712212277386048
5276.0,0.04402314676311082
5280.0,0.010884619391729128
5284.0,-0.003948450425809808
5288.0,0.003969968324460132
5292.0,-0.004945818587778094
5296.0,-0.0023843971328099617
5300.0,0.0009122948839159627
5304.0,0.0009298876653617748
5308.0,-0.005051621745433554
5312.0,0.004306853506779963
5316.0,0.0065214700444559326
5320.0,0.013413926573044743
5324.0,0.01711245585091421
5328.0,-0.008122372222585434
5332.0,-0.02949084757804927
5336.0,0.004901400002081737
5340.0,-0.001519229091553326
5344.0,-0.0025527704529996194
5348.0,-0.010955755475836479
5352.0,-0.0023447744660020373
5356.0,0.007049321208404065
5360.0,0.009395038387783411
5364.0,0.0012031114101289863
5368.0,-0.007779319712570932
5372.0,-0.012121582022017428
5376.0,-0.006792998765845584
5380.0,0.014544369788871272
5384.0,0.026275633015152594
5388.0,0.007687250891111041
5392.0,0.014785795879898212
5396.0,-0.00992286405288134
5400.0,-0.0003373348821713644
5404.0,0.00285497791644377
5408.0,-0.0073447777028730465
5412.0,0.0025816153147500197
5416.0,-0.008447879643707096
5420.0,0.006512523713154447
5424.0,-0.0015822698431572726
5428.0,0.004561721200515022
5432.0,0.002876381931068822
5436.0,-0.013585830346880325
5440.0,0.007936014806347794
5444.0,0.006598189909093102
5448.0,0.014278981838435206
5452.0,-0.0085697474158877
5456.0,-0.0043608547495452505
5460.0,0.015258665009273953
5464.0,0.014516860717959434
5468.0,0.0029192765417931747
5472.0,0.031592220469995005
5476.0,0.06544298667473149
5480.0,0.10025323517981818
5484.0,0.12193528271324525
5488.0,0.14545561177013114
5492.0,0.1786854617797132
5496.0,0.18069564223503548
5500.0,0.21340685661173975
5504.0,0.22537646163295663
5508.0,0.22792233424888186
5512.0,0.22272540967798027
5516.0,0.24372819210297392
5520.0,0.26955361745066975
5524.0,0.25495011654144967
5528.0,0.22011883838019633
5532.0,0.2280894248699268
5536.0,0.21152420459174356
5540.0,0.1853599396016211
5544.0,0.1799616003491646
5548.0,0.144410191120259
5552.0,0.1183487082122558
5556.0,0.07784541534200395
5560.0,0.06403845894267077
5564.0,0.028617091384088765
5568.0,0.0006327179300435683
5572.0,-0.008844648660792901
5576.0,0.008032394029269842
5580.0,-0.02993971618108977
5584.0,-0.012795403664701853
5588.0,0.025244174874203412
5592.0,-0.009072602495932417
5596.0,-0.00032654239725432625
5600.0,0.025857558182373907
5604.0,0.006191268863993009
5608.0,-0.006991097476958044
5612.0,-0.047525671356634554
5616.0,-0.08163017496836295
5620.0,-0.11599091177874205
5624.0,-0.1664719015352193
5628.0,-0.006261491097561212
5632.0,0.10038907001126325
5636.0,0.1960309744591437
5640.0,0.30547619122512687
5644.0,0.3998339597941639
5648.0,0.4959260420558313
5652.0,0.5938012095328173
5656.0,0.6945697044762218
5660.0,0.7859725119092394
5664.0,0.8987526141617415
5668.0,0.9933446839423294
5672.0,0.8852604184816197
5676.0,0.8020981480428062
5680.0,0.7033426242958749
5684.0,0.6004467099751595
5688.0,0.4854605915317019
5692.0,0.41739946230883906
5696.0,0.30301380744110495
5700.0,0.2075736487500468
5704.0,0.09701420327880506
5708.0,0.004025532594792214
5712.0,-0.05477245071122134
5716.0,-0.11530484772995542
5720.0,-0.17963343912963883
5724.0,-0.2402608073894087
5728.0,-0.32021291711828526
5732.0,-0.24412947551592484
5736.0,-0.1766252569261157
5740.0,-0.11681193197722235
5744.0,-0.06432961786164552
5748.0,-0.042439518730955715
5752.0,-0.0371737494380896
5756.0,-0.04763294489431645
5760.0,-0.04372109859895219
5764.0,-0.034526463966797497
5768.0,-0.03293521627768706
5772.0,-0.03370571563509934
5776.0,-0.026660071824060647
5780.0,-0.029384603537420114
5784.0,-0.037000562073876864
5788.0,-0.026423518124475347
5792.0,-0.018268509981443096
5796.0,-0.022539497222205905
5800.0,-0.008677940859077223
5804.0,-0.008504331977346923
5808.0,-0.0026473860134094956
5812.0,-0.04058548730386409
5816.0,-0.007417566058971061
5820.0,-0.0019253110696761354
5824.0,0.004175168630125202
5828.0,0.006410407828651123
5832.0,0.02941685777736648
5836.0,0.05379931617524716
5840.0,0.06579118787218209
5844.0,0.09262281225484945
5848.0,0.1127114396401581
5852.0,0.14076850354765566
5856.0,0.16064212487790147
5860.0,0.18142581326743065
5864.0,0.18927893688283542
5868.0,0.1869255942783507
5872.0,0.23214055262166167
5876.0,0.22263302812537805
5880.0,0.25105913479758785
5884.0,0.26080130196160795
5888.0,0.26278047496086104
5892.0,0.2892464781535408
5896.0,0.2818527178310594
5900.0,0.28075058651350565
5904.0,0.290777984486015
5908.0,0.29761080585743577
5912.0,0.27582082116950146
5916.0,0.2902818850663712
5920.0,0.2807919251841461
5924.0,0.2968236660323608
5928.0,0.27933807555865653
5932.0,0.2662280166144572
5936.0,0.2542694788314476
5940.0,0.24823189850900726
5944.0,0.22583546735247675
5948.0,0.19731221482351316
5952.0,0.18636868208274338
5956.0,0.18611436849516846
5960.0,0.14821498011652698
5964.0,0.1393060219357835
5968.0,0.11808432649900726
5972.0,0.10835805797161865
5976.0,0.07131835860466533
5980.0,0.05564609819185226
5984.0,0.01373462535048759
5988.0,0.011192809018383727
5992.0,0.003921935866580982
5996.0,-0.002137590217167681
6000.0,0.0016224013968188483
6004.0,-0.004137149223063532
6008.0,0.005936846779387354
6012.0,-0.009916011759063063
6016.0,0.004916605812146833
6020.0,-0.005913745259652177
6024.0,0.0036239097326159916
6028.0,0.009577267056113453
6032.0,-0.010590283486575527
6036.0,0.0015712848826533387
6040.0,0.002580517972296657
6044.0,0.0022198287540498335
6048.0,0.0028783491653033904
6052.0,-0.00105637144079124
6056.0,-0.007640963752710908
6060.0,0.0008414071149293804
6064.0,0.0009630168370364893
6068.0,0.015362583095910829
6072.0,0.01566547207834879
6076.0,0.00810831055545878
6080.0,0.015450776985623433
6084.0,5.3481666825972815e-05
6088.0,-0.00215531947811266
6092.0,0.008533523488948253
6096.0,-0.004366126044379703
6100.0,-0.008321030750414425
6104.0,0.020184410913828207
6108.0,0.0030895058867646276
6112.0,0.0003245198129125499
6116.0,-0.007717043337767161
6120.0,0.018158315286813918
6124.0,-0.015513518292556119
6128.0,0.006587806659443611
6132.0,-0.02151948388468047
6136.0,0.007593063239438483
6140.0,-0.0011939105497709213
6144.0,-0.020041679523078827
6148.0,-0.0021284086408837146
6152.0,-0.003371789833959069
6156.0,0.015759641420001774
6160.0,-0.004865947634755465
6164.0,0.001529949381653577
6168.0,0.001451107224941051
6172.0,-0.00623881143454503
6176.0,0.03653228475768468
6180.0,0.0634815529986725
6184.0,0.07871588360595987
6188.0,0.112071421178463
6192.0,0.1339311034231898
6196.0,0.17148627687435766
6200.0,0.19933739222812139
6204.0,0.2088250138691808
6208.0,0.2142787369910637
6212.0,0.24050546698819597
6216.0,0.24965804217846885
6220.0,0.23593810061081352
6224.0,0.24142909509410806
6228.0,0.2626416146653671
6232.0,0.2166605020245273
6236.0,0.21786458108137707
6240.0,0.19312926758717985
6244.0,0.17740967988771872
6248.0,0.1708073904940063
6252.0,0.13978699540269354
6256.0,0.10414263519425657
6260.0,0.075867547322422
6264.0,0.05932182461674036
6268.0,0.014851873004671534
6272.0,0.0002132489741331151
6276.0,-0.008001041257920487
6280.0,0.004844746957805884
6284.0,0.0020040082923778882
6288.0,0.000782334563240197
6292.0,0.008087781495852939
6296.0,0.0027161312902703573
6300.0,-0.008340899168752828
6304.0,-0.004821914750197528
6308.0,0.002955209836635297
6312.0,0.01332087217946404
6316.0,-0.04106813897187263
6320.0,-0.060997046189194305
6324.0,-0.11913604799612146
6328.0,-0.15603704761139053
6332.0,0.0010081533857155868
6336.0,0.09040955727576226
6340.0,0.1893764291029281
6344.0,0.2988785859238127
6348.0,0.3849176408997954
6352.0,0.4716412176053408
6356.0,0.5715271656676362
6360.0,0.6688375408126428
6364.0,0.7638164694186698
6368.0,0.8653725906729618
6372.0,0.9541746651077507
6376.0,0.8607998398222051
6380.0,0.7775079093435759
6384.0,0.6772987686939639
6388.0,0.5989178217658246
6392.0,0.483315045827215
6396.0,0.38405037042830353
6400.0,0.2881142712741113
6404.0,0.185741266467493
6408.0,0.09378438896427471
6412.0,3.595372783404478e-05
6416.0,-0.06296682997895744
6420.0,-0.13518897048965658
6424.0,-0.17206630651731125
6428.0,-0.22081697160581004
6432.0,-0.2794453221515904
6436.0,-0.22908166161519417
6440.0,-0.17540784684285576
6444.0,-0.12177339142415523
6448.0,-0.06169475105685325
6452.0,-0.06402149592345716
6456.0,-0.04597092022519433
6460.0,-0.04140055030626795
6464.0,-0.034358453743751696
6468.0,-0.043133652046715404
6472.0,-0.037667864171734025
6476.0,-0.04507859165745495
6480.0,-0.04101389179988921
6484.0,-0.011906120019097185
6488.0,-0.017142855215366626
6492.0,-0.030793379485358645
6496.0,-0.02811720669238902
6500.0,-0.018043443242422307
6504.0,-0.008302494921167863
6508.0,-0.003863055627955577
6512.0,-0.01832471553649784
6516.0,-0.03926494896798033
6520.0,-0.031061464928014947
6524.0,-0.01575474622248174
6528.0,-0.005997437655689233
6532.0,-0.006845426296106449
6536.0,0.028405471575013885
6540.0,0.021703552183034238
6544.0,0.06119184076876897
6548.0,0.08265230521196293
6552.0,0.10643451970382259
6556.0,0.12651061725202245
6560.0,0.13996858380992158
6564.0,0.15671691007752758
6568.0,0.18585712524581807
6572.0,0.1991701273809046
6576.0,0.22709693244454335
6580.0,0.24107096040157608
6584.0,0.23931397798683482
6588.0,0.24816597495656534
6592.0,0.261285141322652
6596.0,0.2613062031985677
6600.0,0.2857667254014673
6604.0,0.28135276593643554
6608.0,0.2840897963595797
6612.0,0.30180206198909376
6616.0,0.2789699973088787
6620.0,0.2654659347797478
6624.0,0.27997267595072706
6628.0,0.26854486258486904
6632.0,0.25814782124207336
6636.0,0.2678778082177872
6640.0,0.24935502091176778
6644.0,0.22189292460421134
6648.0,0.23694874726811554
6652.0,0.20252956252323392
6656.0,0.1935373121462397
6660.0,0.16894286137944878
6664.0,0.1454259408824692
6668.0,0.14976171276735015
6672.0,0.11058327719473056
6676.0,0.08841018712807214
6680.0,0.06025357608862578
6684.0,0.07579389808932696
6688.0,0.031058279543520244
6692.0,0.0051918178711783105
6696.0,-0.02190245578320741
6700.0,0.009657579048907655
6704.0,0.02052565418198002
6708.0,0.0018623421187731995
6712.0,-0.0023845589210491755
6716.0,0.006746441459724799
6720.0,-0.009228953936007736
6724.0,-0.0013936773530446884
6728.0,-0.007426551902693472
6732.0,0.01888828321493273
6736.0,0.01792895034190085
6740.0,0.011280605523473475
6744.0,0.0007704265305792942
6748.0,0.0014745544258401664
6752.0,-0.007164750302797455
6756.0,0.0040142029335813794
6760.0,-0.007804277934481669
6764.0,0.004457327594711044
6768.0,-0.01163603344934268
6772.0,0.003038875065285578
6776.0,-0.005062554088539475
6780.0,-0.00030917529368128027
6784.0,0.014659967640655728
6788.0,-0.012733275084750313
6792.0,0.030380838866270316
6796.0,0.01639668222999115
6800.0,0.012175633422590329
6804.0,0.0010905952335991027
6808.0,-0.009187172979114777
6812.0,-0.012834180298482347
6816.0,0.00020826155375234642
6820.0,-0.009015640048977038
6824.0,-0.001612217330121834
6828.0,-0.012846030550422993
6832.0,0.0006709644376135026
6836.0,0.006521891623302767
6840.0,-0.006313392815061237
6844.0,0.013596962211613115
6848.0,0.0111713748407957
6852.0,-0.021109503293145267
6856.0,-0.008943596865391227
6860.0,-0.00943943207293958
6864.0,-0.0017611203948667956
6868.0,-0.007583254690174971
6872.0,-0.005678101747994415
6876.0,0.010138927421873023
6880.0,0.03095897877778667
6884.0,0.07833617285370383
6888.0,0.09337375837878623
6892.0,0.12225537649044343
6896.0,0.14832020375808255
6900.0,0.18780682052168676
6904.0,0.2132546273693216
6908.0,0.2231999169065163
6912.0,0.22959137101729207
6916.0,0.25322441902027343
6920.0,0.24946708923426245
6924.0,0.2724308555122278
6928.0,0.2639402813472043
6932.0,0.2729476197320686
6936.0,0.24130697442665633
6940.0,0.23888735997526597
6944.0,0.21967140449961117
6948.0,0.18198391518034543
6952.0,0.16575516037137683
6956.0,0.16276999669121933
6960.0,0.12767048892437619
6964.0,0.12110353868366412
6968.0,0.07085621343245439
6972.0,0.013851731229233097
6976.0,-0.01602438940714847
6980.0,-0.008781598241904083
6984.0,0.005330290846867314
6988.0,0.0069885504169509075
6992.0,0.005865227055807598
6996.0,0.0017168972783473556
7000.0,-0.004098615033532138
7004.0,-0.0040889330379782745
7008.0,0.01709944652521736
7012.0,0.0022225844596027947
7016.0,-0.003951005548556375
7020.0,-0.020567910052829215
7024.0,-0.07963544954832827
7028.0,-0.11364723939000138
7032.0,-0.1633304721934913
7036.0,-0.0018530037699604196
7040.0,0.08453922378221551
7044.0,0.21112008559070516
7048.0,0.3034140974438536
7052.0,0.41178658804920787
7056.0,0.5303710288976066
7060.0,0.616353167092939
7064.0,0.7384744574807341
7068.0,0.8188194666630484
7072.0,0.9430303025892903
7076.0,1.0579195141267113
7080.0,0.9391153675987516
7084.0,0.835250053584091
7088.0,0.7439681623943565
7092.0,0.6235441802683127
7096.0,0.5187749856367733
7100.0,0.4108798054344019
7104.0,0.33265649919859497
7108.0,0.2060190308005837
7112.0,0.10470182747537495
7116.0,0.009417159320488618
7120.0,-0.06960066574599313
7124.0,-0.1221679387600344
7128.0,-0.18839021657786523
7132.0,-0.238224379247584
7136.0,-0.3134802902200506
7140.0,-0.24759934880569703
7144.0,-0.1878470157487728
7148.0,-0.13546160614180267
7152.0,-0.07311207735428456
7156.0,-0.06207540361545429
7160.0,-0.059366712174874166
7164.0,-0.0667359956611766
7168.0,-0.04636207888973572
7172.0,-0.027454793248184436
7176.0,-0.028299016692125208
7180.0,-0.02507242933287187
7184.0,-0.042103585366977225
7188.0,-0.023919941473767765
7192.0,-0.026801332940873078
7196.0,-0.036145711272576736
7200.0,-0.02015883601249123
7204.0,0.001645904852983781
7208.0,-0.013553751984720055
7212.0,-0.015592848098989998
7216.0,-0.012560519749235322
7220.0,-0.00028520371291984765
7224.0,0.007466741466858657
7228.0,-0.0004457959467847926
7232.0,-0.001763509264555113
7236.0,0.0015326990740436395
7240.0,0.030641631514277644
7244.0,0.03908614079700086
7248.0,0.07662687439346524
7252.0,0.09921801531155777
7256.0,0.12188239816875887
7260.0,0.14551049835147878
7264.0,0.168187985274299
7268.0,0.17879858150688302
7272.0,0.21241708418075347
7276.0,0.22491764006883783
7280.0,0.230733744866373
7284.0,0.23924871349256022
7288.0,0.2820954565412415
7292.0,0.2663573038562884
7296.0,0.29092038161815786
7300.0,0.2898599752435258
7304.0,0.31651486305660104
7308.0,0.31949446501084977
7312.0,0.3225048375891274
7316.0,0.31540557142753356
7320.0,0.3082314028115089
7324.0,0.2925435248598077
7328.0,0.29749737081638683
7332.0,0.3130880184777023
7336.0,0.2846727648260445
7340.0,0.27284507781634687
7344.0,0.26868075734323565
7348.0,0.24406462655580471
7352.0,0.24384058380622053
7356.0,0.1950717429123384
7360.0,0.20638759816717314
7364.0,0.18224776943274973
7368.0,0.16271348668003255
7372.0,0.13628933503138305
7376.0,0.10911535984489121
7380.0,0.10084334922385778
7384.0,0.07748894700763259
7388.0,0.028733136580794915
7392.0,0.03856664446671762
7396.0,-0.00040672993048499487
7400.0,-0.01436899208481575
7404.0,-0.007212228750175256
7408.0,-0.010933716821905002
7412.0,-0.005782768170039607
7416.0,-0.009080848220172237
7420.0,0.016296139558287667
7424.0,-0.028346235076159406
7428.0,0.013301899882492165
7432.0,-0.001097273663059327
7436.0,-0.003986715338414471
7440.0,-0.018319512080375713
7444.0,-0.006542468939246247
7448.0,0.01254752052523297
7452.0,0.001412823479404109
7456.0,-0.00887583549429422
7460.0,-0.013649499053349515
7464.0,-0.013407000370820899
7468.0,0.022263356553289024
7472.0,0.008402536760439278
7476.0,-0.007924249803218656
7480.0,-0.021472759559578187
7484.0,-0.0034681616966461067
7488.0,0.006279036560396554
7492.0,-0.012427875507039682
7496.0,-0.005395681833006335
7500.0,0.010365122837452466
7504.0,0.006228492382331589
7508.0,0.005113544887155294
7512.0,-0.002186298585199784
7516.0,-0.0024749906399242345
7520.0,-0.007988141023562975
7524.0,-0.011558129272176053
7528.0,-0.005210824124881858
7532.0,-0.015625898886621775
7536.0,0.008680052991412387
7540.0,0.01269374670438054
7544.0,0.008238635688279207
7548.0,0.0007701041235063086
7552.0,-0.01047640328049159
7556.0,-0.014714557392763646
7560.0,-0.0027089450457951497
7564.0,0.0023510148506308455
7568.0,-0.004347468750987233
7572.0,-0.002336597353583922
7576.0,0.003014571960314821
7580.0,0.00382680650336296
7584.0,0.0252034698060602
7588.0,0.06019152349648783
7592.0,0.09635218263397118
7596.0,0.1209437467634342
7600.0,0.14705942532061944
7604.0,0.17236267240379918
7608.0,0.19106425980153285
7612.0,0.1910927444950844
7616.0,0.2357868554780841
7620.0,0.24093371344211417
7624.0,0.2530804703321541
7628.0,0.23490274057709007
7632.0,0.24828519075352246
7636.0,0.24510257155429085
7640.0,0.23578756029573322
7644.0,0.23143044781706523
7648.0,0.19813315050245708
7652.0,0.19339345040516648
7656.0,0.17582765957521557
7660.0,0.1510364724099956
7664.0,0.11134923949401138
7668.0,0.09550872031935281
7672.0,0.07145213936682708
7676.0,0.018225732547647346
7680.0,-0.0010583004962583487
7684.0,-0.005317057572363901
7688.0,-0.01630402395458583
7692.0,0.017488957430230493
7696.0,0.012608290662863116
7700.0,0.002039338808544106
7704.0,-0.010787705187330573
7708.0,0.0025327325692862113
7712.0,-0.0032087179489373114
7716.0,-0.0038808363970023185
7720.0,-0.006513963339811954
7724.0,-0.04471516396022338
7728.0,-0.07554011078612188
7732.0,-0.10974777516920942
7736.0,-0.1584166054594584
7740.0,0.0016601578329775038
7744.0,0.09315148367127092
7748.0,0.22164771131019834
7752.0,0.30487950772105377
7756.0,0.3984693163324551
7760.0,0.4886875068586857
7764.0,0.5854292282391389
7768.0,0.7032637355432982
7772.0,0.7910738796598159
7776.0,0.8948876023122305
7780.0,0.9967928474131369
7784.0,0.8973918310314613
7788.0,0.7932347695669589
7792.0,0.6943281611918546
7796.0,0.6003906913571753
7800.0,0.49666905918769505
7804.0,0.39288270993040897
7808.0,0.29758132187504865
7812.0,0.19759248782736355
7816.0,0.1064695855601391
7820.0,0.004661647808566111
7824.0,-0.08165091313088117
7828.0,-0.1245450196550293
7832.0,-0.17763735007291603
7836.0,-0.2333396812131133
7840.0,-0.31072922736833225
7844.0,-0.2246849034680475
7848.0,-0.1779372316519071
7852.0,-0.1161537918466414
7856.0,-0.06623185596103993
7860.0,-0.045123150474792054
7864.0,-0.0510866197226129
7868.0,-0.04895078980551868
7872.0,-0.039299470636348574
7876.0,-0.053185537023407656
7880.0,-0.04803741001126803
7884.0,-0.018543411721878785
7888.0,-0.04710272579876883
7892.0,-0.021939230203651107
7896.0,-0.005987985024217744
7900.0,-0.009729037150455885
7904.0,-0.027706589442163903
7908.0,-0.009543519427126288
7912.0,-0.026546948450026184
7916.0,-0.01840215416177937
7920.0,-0.0010989591252778663
7924.0,-0.026574063746587197
7928.0,0.005530240831062907
7932.0,0.011358350330884039
7936.0,0.01780710115201048
7940.0,-0.009436324466138608
7944.0,0.022986811378227126
7948.0,0.05691221572888837
7952.0,0.0763103514190238
7956.0,0.09935659710175648
7960.0,0.10456489045466738
7964.0,0.14314134434173906
7968.0,0.16273374531886217
7972.0,0.16597601191373176
7976.0,0.20949764979783775
7980.0,0.22269213117445966
7984.0,0.2409668380788652
7988.0,0.2580000062134561
7992.0,0.2509435974904863
7996.0,0.2587317189653766
8000.0,0.27161242809555625
8004.0,0.2945078960900335
8008.0,0.28878223291866023
8012.0,0.3041527417126787
8016.0,0.30519046001651906
8020.0,0.2928712173224422
8024.0,0.29124130274860427
8028.0,0.2953813393671181
8032.0,0.29267020795575677
8036.0,0.28096336426685614
8040.0,0.25697411195291137
8044.0,0.2596624482758564
8048.0,0.24515053826679148
8052.0,0.2509988611086427
8056.0,0.23255892078690138
8060.0,0.22237574238931643
8064.0,0.19972889915185751
8068.0,0.17665196368902275
8072.0,0.16017885792435607
8076.0,0.13812330831246394
8080.0,0.10973460543582386
8084.0,0.09764850671432312
8088.0,0.07269924139458563
8092.0,0.04977396278936653
8096.0,0.034653048724277824
8100.0,0.008804106953849743
8104.0,-0.009253042417387409
8108.0,0.005893132416542724
8112.0,-0.01894434268253697
8116.0,0.0034637981647292595
8120.0,0.02203308660528031
8124.0,0.0016763564847691956
8128.0,0.008838411191080087
8132.0,-0.007945040344585512
8136.0,0.001875582910408597
8140.0,-0.022884106406419743
8144.0,-0.002412400264460653
8148.0,0.013561773065835565
8152.0,0.012409235297781785
8156.0,-0.010882807441749276
8160.0,-0.005653359007174151
8164.0,0.009646623161922451
8168.0,0.004670455314449862
8172.0,-0.007128224166242887
8176.0,0.006308453298167519
8180.0,-0.004972853883824206
8184.0,-0.003012509949554625
8188.0,-0.01835462460488449
8192.0,-0.00473807728245436
8196.0,0.00937497435352009
8200.0,-0.010213754696544014
8204.0,0.001992633861511606
8208.0,-0.005611479534803976
8212.0,-0.0017468301764876563
8216.0,-0.012539807705971183
8220.0,-0.006382790510347072
8224.0,0.011702257644720502
8228.0,0.022096306469137177
8232.0,0.028039897741991032
8236.0,-0.004898984282938852
8240.0,-0.011153682290769209
8244.0,0.001961741846289259
8248.0,0.023676000324131696
8252.0,-0.003328233815153561
8256.0,0.004827563805640159
8260.0,-0.0011646996704043064
8264.0,0.00594723998314473
8268.0,0.009074247076551831
8272.0,0.0033566568839586046
8276.0,0.00994812108843436
8280.0,-0.000943539165940258
8284.0,-0.011841762343697326
8288.0,0.022404815344697473
8292.0,0.05238016154267627
8296.0,0.09239410849699113
8300.0,0.1164199255072712
8304.0,0.12919014542616306
8308.0,0.16770483021985125
8312.0,0.18120940728553883
8316.0,0.19717735610369178
8320.0,0.21297724976014154
8324.0,0.2349024316658188
8328.0,0.21495725159990098
8332.0,0.24816308897846903
8336.0,0.22304076748955837
8340.0,0.24753505147828678
8344.0,0.22476849292969003
8348.0,0.20856037426746962
8352.0,0.19566052341167905
8356.0,0.17801555329856228
8360.0,0.14676129399195537
8364.0,0.137067525501687
8368.0,0.12085894511090346
8372.0,0.0735038701054749
8376.0,0.06526944612380566
8380.0,0.0209891810642662
8384.0,-0.004000490727685854
8388.0,-0.006773605979723128
8392.0,0.006030092558238681
8396.0,0.0013718078401753053
8400.0,-0.010254551449988306
8404.0,0.00315979759572714
8408.0,-0.00217393584260208
8412.0,-0.004877779204493808
8416.0,0.012524374302511559
8420.0,-0.00563384329142901
8424.0,-0.001079632062483564
8428.0,-0.02765595821588904
8432.0,-0.0720545109437752
8436.0,-0.12559457349678183
8440.0,-0.16091395728857788
8444.0,-0.010355694077289312
8448.0,0.09152247354463683
8452.0,0.2043786640656056
8456.0,0.29317412430515
8460.0,0.3675326477897106
8464.0,0.49174933958999767
8468.0,0.5769645835127472
8472.0,0.6767009730459697
8476.0,0.7684944058432966
8480.0,0.8705640352439802
8484.0,0.953454073603045
8488.0,0.860577334000341
8492.0,0.7761442967115068
8496.0,0.68204096995245
8500.0,0.5713997227032419
8504.0,0.47592020534296825
8508.0,0.38085590474622
8512.0,0.2988716884193307
8516.0,0.21009068305302064
8520.0,0.10814701840015083
8524.0,-0.006737099226909372
8528.0,-0.06804923127426739
8532.0,-0.10074385761183549
8536.0,-0.1944259484252046
8540.0,-0.22889605955342804
8544.0,-0.27338961384329735
8548.0,-0.24678280537203412
8552.0,-0.1744087861013104
8556.0,-0.1304364313104718
8560.0,-0.0565877650829793
8564.0,-0.049160512106692665
8568.0,-0.05291301310653307
8572.0,-0.06875308071981845
8576.0,-0.02957406529677368
8580.0,-0.03479099890262846
8584.0,-0.041667835437986314
8588.0,-0.05637403614432434
8592.0,-0.01673809755062331
8596.0,-0.018873448732673513
8600.0,-0.022738453451573104
8604.0,-0.025125707444707754
8608.0,-0.024589149139775245
8612.0,-0.02017093816206022
8616.0,-0.02062078617825098
8620.0,-0.017395677690014006
8624.0,-0.0057617861650786336
8628.0,0.0007842456260512137
8632.0,-0.004549150044352294
8636.0,-0.018801878321592656
8640.0,-0.008442429323980278
8644.0,0.007211167216955493
8648.0,0.030769666746810337
8652.0,0.04306605919496069
8656.0,0.08010109487452383
8660.0,0.08185770063964905
8664.0,0.09824538130747026
8668.0,0.13206847296782107
8672.0,0.16701225611767967
8676.0,0.16521487744307975
8680.0,0.17851266098420343
8684.0,0.21533993458898895
8688.0,0.22192275450321067
8692.0,0.23151864836604574
8696.0,0.24718821658631449
8700.0,0.2534903309943695
8704.0,0.2635974525807189
8708.0,0.25693664933612265
8712.0,0.2948071666923237
8716.0,0.2585461760276554
8720.0,0.30115838102769854
8724.0,0.2844530720341903
8728.0,0.2921960437748121
8732.0,0.2859278215030856
8736.0,0.2781492375929986
8740.0,0.28384992646149704
8744.0,0.2690151956022638
8748.0,0.2574251215054618
8752.0,0.2540255729603181
8756.0,0.23413406805221584
8760.0,0.21851317180193477
8764.0,0.21889678067971502
8768.0,0.179523713303561
8772.0,0.169885285196692
8776.0,0.1517135548087949
8780.0,0.11908563054440145
8784.0,0.11446238984031984
8788.0,0.09309943585457146
8792.0,0.06885492077225285
8796.0,0.036738040989889434
8800.0,0.02439998826876393
8804.0,0.010573294352833175
8808.0,-0.013846173772363732
8812.0,-0.0003486006515558761
8816.0,-0.015295689035225997
8820.0,0.008319142057120784
8824.0,-0.014296704966436211
8828.0,0.019962967236969855
8832.0,0.01301877873564172
8836.0,0.014046207217504651
8840.0,-0.008965484075964562
8844.0,-0.000867971022930034
8848.0,-0.01794807306839796
8852.0,-0.008598180318076363
8856.0,0.016270973593204473
8860.0,0.01540946483971347
8864.0,-0.010131833033411135
8868.0,-0.005546313061660476
8872.0,0.007348087507664576
8876.0,0.01468771011016985
8880.0,0.0055372392678521235
8884.0,0.017950401636645425
8888.0,-0.006961428009749363
8892.0,0.00334032367660072
8896.0,0.009952142505726675
8900.0,0.00932611980175488
8904.0,-0.004638085579968225
8908.0,-0.00277523244010893
8912.0,0.004513888852253511
8916.0,-0.009353875840594744
8920.0,0.014516675318978026
8924.0,-0.0025447714092243024
8928.0,-0.011420598428118788
8932.0,-0.01725002917871174
8936.0,-0.008991024756958439
8940.0,0.0030015145525616677
8944.0,0.010135160385583082
8948.0,-0.0054892693628248515
8952.0,-0.009173811519434532
8956.0,0.003597617811757935
8960.0,0.01506789624658281
8964.0,-0.008541443598797958
8968.0,0.02006795846255838
8972.0,-0.018962004205463935
8976.0,0.013634742545089592
8980.0,0.007687130099076281
8984.0,-0.012015192831045459
8988.0,0.010115146437692858
8992.0,0.014413555731433356
8996.0,0.05941782787473017
9000.0,0.07397370793304586
9004.0,0.10355895797365164
9008.0,0.14737832087937847
9012.0,0.15912245807164824
9016.0,0.18840586497613576
9020.0,0.20778391042504643
9024.0,0.21865341056366985
9028.0,0.23406616936911737
9032.0,0.20827216620376537
9036.0,0.23305527288022937
9040.0,0.23331283601172487
9044.0,0.22692973139986863
9048.0,0.22354419784868704
9052.0,0.22423067821891834
9056.0,0.213817400930449
9060.0,0.20398009469780312
9064.0,0.16968444205071134
9068.0,0.1502995146386144
9072.0,0.12395918364445768
9076.0,0.09981528479646405
9080.0,0.07164658630955115
9084.0,0.026914392495099644
9088.0,-0.011605019520953988
9092.0,-0.012429417058521028
9096.0,0.003671775966986084
9100.0,0.01948616126582894
9104.0,-0.002894787634788868
9108.0,0.002117063528856839
9112.0,-0.018062372341888965
9116.0,0.009984406541258426
9120.0,0.002742092526054732
9124.0,0.004237071950255776
9128.0,-0.016978427174859825
9132.0,-0.029582271671964193
9136.0,-0.0789882680334955
9140.0,-0.12644091270212313
9144.0,-0.14214016289968381
9148.0,0.005851332066328617
9152.0,0.09338688147946375
9156.0,0.19069565086245455
9160.0,0.29633417894477304
9164.0,0.3802600124253565
9168.0,0.4774715122840532
9172.0,0.5796830291285342
9176.0,0.6707937352134843
9180.0,0.7595873836624979
9184.0,0.8631512883204835
9188.0,0.9673099859758651
9192.0,0.879632604556341
9196.0,0.7664520001076586
9200.0,0.6789156409819563
9204.0,0.5788352730074181
9208.0,0.4629332115395975
9212.0,0.3816354992050024
9216.0,0.291431802236226
9220.0,0.1853348883819421
9224.0,0.10811375893417269
9228.0,-0.005656442333939221
9232.0,-0.056165509759278025
9236.0,-0.12329163338478595
9240.0,-0.17165655036327443
9244.0,-0.24405520017274426
9248.0,-0.2628083782583735
9252.0,-0.22519666135903685
9256.0,-0.1706119502437443
9260.0,-0.12038563320997803
9264.0,-0.07205446579099986
9268.0,-0.053295907213972704
9272.0,-0.05471330051533821
9276.0,-0.040960333381748655
9280.0,-0.02865739845929638
9284.0,-0.050928952359806545
9288.0,-0.032484906971958515
9292.0,0.0005823014617547251
9296.0,-0.03174410209140381
9300.0,-0.022190010031240978
9304.0,-0.032344324110147996
9308.0,-0.031221790358663327
9312.0,-0.03548235267744688
9316.0,-0.019426533932622926
9320.0,-0.02245350114118979
9324.0,-0.002010020154616257
9328.0,0.0028390329294027926
9332.0,-0.008083063687825978
9336.0,-0.007641789099737539
9340.0,0.00857292119524837
9344.0,-0.018612035498258205
9348.0,-0.006099433658446087
9352.0,0.012892622768862083
9356.0,0.046577784927651265
9360.0,0.06403100565313524
9364.0,0.07613801316084998
9368.0,0.09806368437630172
9372.0,0.12474857487561229
9376.0,0.15843984820452195
9380.0,0.17721616977210655
9384.0,0.20078419329118558
9388.0,0.21389533545008876
9392.0,0.2217696323601735
9396.0,0.2199309085116066
9400.0,0.23542536258993327
9404.0,0.24152370734672277
9408.0,0.2610376707544358
9412.0,0.27991379380553455
9416.0,0.28122488030821335
9420.0,0.2896267145440293
9424.0,0.2952131867392562
9428.0,0.28602035006428705
9432.0,0.2749505227320802
9436.0,0.27472259094323437
9440.0,0.25240800197333185
9444.0,0.25647929113359025
9448.0,0.2799841820255957
9452.0,0.26246908363891974
9456.0,0.2372650036720241
9460.0,0.23136920839195574
9464.0,0.21619467421034747
9468.0,0.20937687416040385
9472.0,0.17584221086981647
9476.0,0.17067810899255156
9480.0,0.15565645008042245
9484.0,0.12828064819656632
9488.0,0.10241917464326988
9492.0,0.09869468638458967
9496.0,0.07006080195398766
9500.0,0.04648842243158928
9504.0,0.022158119877272293
9508.0,-0.013247267348771654
9512.0,-0.009934914115370157
9516.0,0.0001726952692980188
9520.0,-0.0011317583157874121
9524.0,-0.0020041431936065964
9528.0,-0.007511021009189091
9532.0,-0.007356768943586091
9536.0,-0.010057762596870768
9540.0,-0.01763397517483227
9544.0,-0.0033141501309242333
9548.0,-0.021504324734999223
9552.0,0.0008557441395592571
9556.0,0.004499571677152905
9560.0,-0.006858527909652472
9564.0,0.004990516945291615
9568.0,-0.011398755143711328
9572.0,0.01175590764693964
9576.0,-0.02278689086703294
9580.0,-0.028381614704517184
9584.0,0.012536561711528112
9588.0,-0.0034102798316999567
9592.0,-0.0020904065246214326
9596.0,0.0016520982324419126
9600.0,-0.0003375407576774999
9604.0,-0.000683456168550607
9608.0,0.007534961275500768
9612.0,0.007323464713138522
9616.0,0.015859970057536664
9620.0,-0.0011903957129504917
9624.0,-0.011871285908895203
9628.0,0.015099869982010676
9632.0,-0.016258113024610672
9636.0,0.007309108318269404
9640.0,-0.013578608916408646
9644.0,0.0006137699968729061
9648.0,-0.01698405500820285
9652.0,-0.017237473296345528
9656.0,-0.009680840408053601
9660.0,0.00021491156418576297
9664.0,-0.008155847152527481
9668.0,0.002859718667931076
9672.0,-0.0034142622095824377
9676.0,0.0030312694041977092
9680.0,-0.0005610023308209492
9684.0,-0.012059891720259732
9688.0,-0.0020314233784940595
9692.0,0.0006878355587181973
9696.0,0.023716184975563
9700.0,0.061996558445942825
9704.0,0.08952304886646936
9708.0,0.1231567423658683
9712.0,0.14255396193451436
9716.0,0.16707391306031374
9720.0,0.19384203306850123
9724.0,0.21728795702461712
9728.0,0.22753509700717103
9732.0,0.24986159767304145
9736.0,0.24410160190006816
9740.0,0.23323489047063792
9744.0,0.25583055599622895
9748.0,0.2437423486754299
9752.0,0.22900043442691276
9756.0,0.23766445141600198
9760.0,0.21288353915252484
9764.0,0.19527092512564934
9768.0,0.17915079020503127
9772.0,0.15152364388168033
9776.0,0.12844203666578544
9780.0,0.09784123376317928
9784.0,0.059891628229439414
9788.0,0.03493559380600205
9792.0,-0.000689690205619036
9796.0,0.0013674208022427248
9800.0,0.0014522641291709
9804.0,0.014618273308183102
9808.0,-0.01040054450868827
9812.0,0.01176244979572408
9816.0,0.000911037237207035
9820.0,0.003432920691167547
9824.0,-0.0031919625397729377
9828.0,-0.014093895655277957
9832.0,0.0013210361571196632
9836.0,-0.028515460357054892
9840.0,-0.08584282914687019
9844.0,-0.10408340763590138
9848.0,-0.1373344008547147
9852.0,-0.015340282359172322
9856.0,0.1040098047272561
9860.0,0.21082640086133472
9864.0,0.29946407385077106
9868.0,0.3950551595390396
9872.0,0.5169748583515292
9876.0,0.6121606121536822
9880.0,0.7156770230139106
9884.0,0.8218381886461607
9888.0,0.9112187388980616
9892.0,1.016183308746688
9896.0,0.9171807039471389
9900.0,0.8147429795929946
9904.0,0.6997543535203093
9908.0,0.6020309594480276
9912.0,0.4933283052913433
9916.0,0.4073185648005644
9920.0,0.3064563835442246
9924.0,0.19141701084702908
9928.0,0.10646109932108626
9932.0,0.015939545017429443
9936.0,-0.06427200403573635
9940.0,-0.11319356498193388
9944.0,-0.17860986355336392
9948.0,-0.251519555811826
9952.0,-0.30245988408942587
9956.0,-0.23136106080326288
9960.0,-0.1803266196627899
9964.0,-0.1329584116834676
9968.0,-0.0548343482937465
9972.0,-0.06237538348561963
9976.0,-0.04518755573505338
9980.0,-0.05688004646012592
9984.0,-0.043954251984713484
9988.0,-0.043820003268521174
9992.0,-0.04275521464969094
9996.0,-0.030256581023734234
10000.0,-0.04537395333432111
10004.0,-0.017502005372749693
10008.0,-0.03249481692128848
10012.0,-0.027965856405489938
10016.0,-0.04135234394218996
10020.0,-0.02440047515405488
10024.0,-0.034575878804938426
10028.0,-0.007004173581437182
10032.0,-0.022746945741595272
10036.0,-0.01263542449355196
10040.0,-0.013533517508314153
10044.0,0.016408156835560954
10048.0,0.00452266787268668
10052.0,-0.015424022298370864
10056.0,0.020819258931591807
10060.0,0.05256911323900885
10064.0,0.07852312837058198
10068.0,0.08892778274202445
10072.0,0.11583992017295698
10076.0,0.1160869027028433
10080.0,0.14982673472596394
10084.0,0.18881026934797715
10088.0,0.18895735050435492
10092.0,0.22332502569003773
10096.0,0.23801324763378023
10100.0,0.23426392453304656
10104.0,0.2732124806769698
10108.0,0.2686763844347238
10112.0,0.29514573427255275
10116.0,0.2920950523558577
10120.0,0.2779357370051052
10124.0,0.31249037837887367
10128.0,0.29645634436111634
10132.0,0.3067246608510234
10136.0,0.29338456238168337
10140.0,0.2926534636969841
10144.0,0.3058269919259799
10148.0,0.29594848155600123
10152.0,0.2851339516927632
10156.0,0.266752138998895
10160.0,0.27493603251411636
10164.0,0.23687670219579515
10168.0,0.2244362091158952
10172.0,0.20857662195820678
10176.0,0.1933865894739387
10180.0,0.17153331258355475
10184.0,0.16102311665306665
10188.0,0.15942291526030955
10192.0,0.13626928804573168
10196.0,0.10369910169024722
10200.0,0.07512419794820396
10204.0,0.034900381004366314
10208.0,0.011578187247658783
10212.0,-0.009426833740628372
10216.0,-0.024586352375536802
10220.0,0.01196229034768887
10224.0,-0.02272980603251908
10228.0,0.014387883318332295
10232.0,-0.0015115473709723488
10236.0,-0.009737406110456778
10240.0,0.0009309477526015729
10244.0,-0.0007141187714367072
10248.0,-0.006037823291764889
10252.0,0.020303950455099747
10256.0,0.008193287390385048
10260.0,0.008794819670616143
10264.0,0.0016741205233667456
10268.0,0.0012834310042549452
10272.0,0.009031944833096552
10276.0,-0.024753202332694714
10280.0,0.005991461269873155
10284.0,-0.015031373712114729
10288.0,-0.007914075373485395
10292.0,-0.00045105752753474716
10296.0,0.0017516778780218873
10300.0,-0.003038853102545139
10304.0,-0.009246224721807108
10308.0,0.007864086198147213
10312.0,-0.008844027912055626
10316.0,-0.019158301709202005
10320.0,-0.003927502229060069
10324.0,-0.0038745312647452523
10328.0,-0.0013129020770613856
10332.0,-0.020736549754629588
10336.0,-0.009716296815131033
10340.0,0.016821724461478275
10344.0,-0.011477026723218155
10348.0,-0.007355707881695603
10352.0,-0.010419492541646744
10356.0,-0.018898228022934276
10360.0,0.010963053374807954
10364.0,-0.013913215577915408
10368.0,0.008836387608789803
10372.0,0.004628772894273744
10376.0,0.005489609087162998
10380.0,-0.0029635340535499404
10384.0,0.002984681621766706
10388.0,0.016692396298663342
10392.0,0.004396122877586241
10396.0,-0.021051530145306422
10400.0,0.03236693678952593
10404.0,0.06780133118178022
10408.0,0.08914504509728019
10412.0,0.12450997595429734
10416.0,0.15402666532525078
10420.0,0.15718521464213422
10424.0,0.18400171030858142
10428.0,0.20089264904637844
10432.0,0.23070839526506026
10436.0,0.23087157017332124
10440.0,0.2368567475099121
10444.0,0.2771706957990628
10448.0,0.24039740625172115
10452.0,0.23572890570877056
10456.0,0.22652474590406682
10460.0,0.21822167631797937
10464.0,0.21117403461386008
10468.0,0.1900448397103697
10472.0,0.18072647241620687
10476.0,0.1449866912199555
10480.0,0.10998449242626389
10484.0,0.10420588730804481
10488.0,0.06680481483083084
10492.0,0.028333825282200152
10496.0,-0.0028987371856335565
10500.0,-0.009331511615715627
10504.0,-0.00034210785645194584
10508.0,0.0020424493831096226
10512.0,0.0027259962493558967
10516.0,-0.006693084230041202
10520.0,0.020278189123232086
10524.0,0.006493203934474753
10528.0,-0.011816702859844347
10532.0,0.019326872704819184
10536.0,-0.008212511030375944
10540.0,-0.03457627806626742
10544.0,-0.07903214389328703
10548.0,-0.1282762484974084
10552.0,-0.1533544043592884
10556.0,-0.0017529467058335763
10560.0,0.10645899045520812
10564.0,0.19763636635073045
10568.0,0.2949927860549968
10572.0,0.3895503838736669
10576.0,0.5084349491925385
10580.0,0.5816693271716972
10584.0,0.6799040335735929
10588.0,0.7830295193802326
10592.0,0.8933075762116025
10596.0,0.9803099706761136
10600.0,0.8668214055301697
10604.0,0.7989478101244117
10608.0,0.6948616686634647
10612.0,0.5786142919266558
10616.0,0.4847957835976412
10620.0,0.3896903616318926
10624.0,0.3038577574873813
10628.0,0.19570090451837668
10632.0,0.09743669527501585
10636.0,-0.011381596767430151
10640.0,-0.04472521753513585
10644.0,-0.10294016006144852
10648.0,-0.1778281021488631
10652.0,-0.23994044096792766
10656.0,-0.2858635224049494
10660.0,-0.2337240618458316
10664.0,-0.1839988166754821
10668.0,-0.10217666790912605
10672.0,-0.06678099716720728
10676.0,-0.05184672732053484
10680.0,-0.049343423719272715
10684.0,-0.03777804913612735
10688.0,-0.05575222384424798
10692.0,-0.03311457600308421
10696.0,-0.03124064765710537
10700.0,-0.03916557937266193
10704.0,-0.03205011341700044
10708.0,-0.02768901244405937
10712.0,-0.04013465616980909
10716.0,-0.03121412074106463
10720.0,-0.04170010441234485
10724.0,-0.023342548697803372
10728.0,-0.020619311529981733
10732.0,-0.0061468189633344435
10736.0,-0.012264897251916852
10740.0,-0.002372222094515067
10744.0,-0.0005002320841362082
10748.0,-0.012028565848068277
10752.0,0.009627010985206321
10756.0,0.025926903798591906
10760.0,0.05244244460535269
10764.0,0.04382904680648786
10768.0,0.07157733360860705
10772.0,0.08646730472373318
10776.0,0.11736624051286164
10780.0,0.1317848059995882
10784.0,0.1492007516060914
10788.0,0.16856661459284536
10792.0,0.19562838178434902
10796.0,0.18830638825070922
10800.0,0.23731262646370652
10804.0,0.24106872880069322
10808.0,0.2532784007839292
10812.0,0.24754618552612265
10816.0,0.25611117709682046
10820.0,0.2678522413037565
10824.0,0.28911121626073244
10828.0,0.2937590140128307
10832.0,0.30309960405976444
10836.0,0.2971181222365828
10840.0,0.2831470520565725
10844.0,0.2820038536104364
10848.0,0.2780821975798331
10852.0,0.2962222674335554
10856.0,0.2824089822160528
10860.0,0.28500695020226746
10864.0,0.2572565546484354
10868.0,0.23673328193862325
10872.0,0.22541129398416618
10876.0,0.19976977390970277
10880.0,0.1924987667193643
10884.0,0.168162772027035
10888.0,0.14535009365714557
10892.0,0.12240370677281469
10896.0,0.09291171304270268
10900.0,0.09240806343079644
10904.0,0.06854289214567681
10908.0,0.047613753604085395
10912.0,0.008806583066394591
10916.0,-0.004822292861433403
10920.0,-0.004476260624311111
10924.0,-0.005122529618471661
10928.0,0.0029878945927589652
10932.0,0.0031485080414676175
10936.0,0.010639880223706663
10940.0,-0.006260179292604141
10944.0,7.929057613164998e-05
10948.0,0.007185584616058342
10952.0,0.003910387560879367
10956.0,-0.0005250215258898126
10960.0,0.003053854409939392
10964.0,-0.0034428042847031233
10968.0,-0.0015458234947194915
10972.0,-0.0018426574108610827
10976.0,0.0031375537331039417
10980.0,-0.005623220293452525
10984.0,0.0059160257347158915
10988.0,-0.005137684066214786
10992.0,0.015140067272191004
10996.0,0.004429552379141125
11000.0,0.011729952848964687
11004.0,-0.006181703774553698
11008.0,0.0038023277437085595
11012.0,-0.003045873388931596
11016.0,-0.018081792997555985
11020.0,-0.007034220095654491
11024.0,0.013418389219052649
11028.0,0.005972007970981416
11032.0,-0.00013847595499765647
11036.0,-0.006668783011019549
11040.0,0.004984155326625782
11044.0,0.005215831811755836
11048.0,0.009632496700551081
11052.0,0.0015529581585216033
11056.0,-0.0032695828270799653
11060.0,0.0071644928508869015
11064.0,0.01616797282641346
11068.0,-0.008943987768269311
11072.0,0.00454704728693192
11076.0,0.01142252201839135
11080.0,-0.0038659264729879812
11084.0,-0.0004607495153199404
11088.0,0.006217783084571548
11092.0,-0.0053896884039866776
11096.0,0.018713766543519285
11100.0,-0.009145993495090125
11104.0,0.01299990781791531
11108.0,0.05511144577322753
11112.0,0.0923575861475021
11116.0,0.11312370410698677
11120.0,0.16224669780878564
11124.0,0.17670901068830194
11128.0,0.20555236852240155
11132.0,0.2052031214208155
11136.0,0.22750342888374653
11140.0,0.25372154324688023
11144.0,0.2372594565554998
11148.0,0.25686048290130536
11152.0,0.23592077719245577
11156.0,0.24575009415180216
11160.0,0.24877958925363
11164.0,0.22795592688274138
11168.0,0.20934010159127875
11172.0,0.2009510893005434
11176.0,0.16963232238894863
11180.0,0.15560788482918608
11184.0,0.11440185377221974
11188.0,0.09067588520365745
11192.0,0.06258240320791887
11196.0,0.04403214101219567
11200.0,-0.0063987499009936066
11204.0,-0.005092643041300571
11208.0,-0.0040297155863544785
11212.0,0.008749377495247193
11216.0,-0.008579302187507238
11220.0,-0.010552695947078423
11224.0,-0.011331239843654606
11228.0,0.007230502124388159
11232.0,0.007842195073279112
11236.0,0.0006582445991299362
11240.0,0.0015705702128823665
11244.0,-0.04514121293510253
11248.0,-0.06636685500128196
11252.0,-0.11761851337270451
11256.0,-0.1493585278963056
11260.0,-0.010546006971697398
11264.0,0.09587707322891346
11268.0,0.21249325828916663
11272.0,0.3197898520643422
11276.0,0.3988562173080925
11280.0,0.5057896553314513
11284.0,0.5974281019193848
11288.0,0.7211094034305682
11292.0,0.8146105312044388
11296.0,0.9172998433796473
11300.0,1.0120031979170347
11304.0,0.927845246634828
11308.0,0.8200642907365582
11312.0,0.7300724658971703
11316.0,0.624278180515184
11320.0,0.5088918450558744
11324.0,0.4097022688789562
11328.0,0.31011231255018185
11332.0,0.18688955027034773
11336.0,0.10244167586688553
11340.0,0.009509601593096714
11344.0,-0.0709307301424452
11348.0,-0.11553335218527085
11352.0,-0.1953028067751771
11356.0,-0.24493298753174836
11360.0,-0.31612006570989976
11364.0,-0.2601169605845951
11368.0,-0.19501890889794926
11372.0,-0.11371729813531789
11376.0,-0.0735724962762532
11380.0,-0.0495732797749228
11384.0,-0.05557643172269551
11388.0,-0.03759944304820732
11392.0,-0.037790853624843065
11396.0,-0.019848083434638987
11400.0,-0.029409538558055125
11404.0,-0.030285931966855757
11408.0,-0.05342930951442133
11412.0,-0.028222977437258392
11416.0,-0.02923235242809086
11420.0,-0.025560189680125536
11424.0,-0.036313753570868634
11428.0,-0.00369084980288965
11432.0,-0.003512713606795153
11436.0,-0.02518535943352182
11440.0,-0.02167981527361467
11444.0,-0.007341925714812824
11448.0,-0.003463467866001409
11452.0,0.004102802766543099
11456.0,-0.0003588151384916233
11460.0,-0.006981059152873285
11464.0,0.011105135986462636
11468.0,0.03690788847950286
11472.0,0.08620023928159254
11476.0,0.07976677202144018
11480.0,0.10134346752737403
11484.0,0.14227222335725842
11488.0,0.16138178227185843
11492.0,0.17787251164344525
11496.0,0.20369157935839005
11500.0,0.2184566586691372
11504.0,0.2308032285577392
11508.0,0.24090407571271316
11512.0,0.2622866789379529
11516.0,0.2848514923675552
11520.0,0.2955749098048167
11524.0,0.300618575652232
11528.0,0.29542306998889867
11532.0,0.30445897812699374
11536.0,0.3214332958204397
11540.0,0.3116892200398576
11544.0,0.3063824812798654
11548.0,0.2928087447257562
11552.0,0.29629564040012996
11556.0,0.2837854806952516
11560.0,0.27443940808651124
11564.0,0.26122317886379387
11568.0,0.2590664782497511
11572.0,0.25119579123574837
11576.0,0.25629592888223196
11580.0,0.2122856887664051
11584.0,0.19755871376770182
11588.0,0.18573687498887417
11592.0,0.1580244077182279
11596.0,0.13162928521270462
11600.0,0.10777973588251873
11604.0,0.08968828961105536
11608.0,0.06054359087265302
11612.0,0.040519123714934116
11616.0,0.014926070512739503
11620.0,-0.00015352602112810672
11624.0,-0.002438152532815152
11628.0,-0.01698464253371027
11632.0,-0.007293391325495925
11636.0,-0.0106882145200796
11640.0,0.010099534677768035
11644.0,0.0009330988557964935
11648.0,0.014125090346074341
11652.0,-0.004604993715848821
11656.0,0.008090672614811308
11660.0,0.00807960486203308
11664.0,-0.019705127756601958
11668.0,0.020080348651637096
11672.0,-0.009585859534601327
11676.0,0.0010611000326131636
11680.0,-0.0013479637481706769
11684.0,0.003311047515794713
11688.0,-0.0014401945616138616
11692.0,0.0036942768969667316
11696.0,-0.0006589809232009045
11700.0,-0.0038838267417515993
11704.0,0.001317438314402897
11708.0,-0.007455658186652746
11712.0,0.010850694304923626
11716.0,0.01222542917066211
11720.0,-0.001585652397195572
11724.0,-8.355712071014105e-06
11728.0,0.000563756189958655
11732.0,0.01194656478033222
11736.0,0.0002361715546504071
11740.0,2.111579253905574e-06
11744.0,-0.006125276921962157
11748.0,-0.006570183921919701
11752.0,-0.020710275368298305
11756.0,0.004217331451280747
11760.0,-0.0007373093128573098
11764.0,-0.017350289729478302
11768.0,0.020503058452144715
11772.0,0.02583147136396832
11776.0,0.006279527502703243
11780.0,-0.008554528287394237
11784.0,0.008975545655610729
11788.0,-0.011488498294901726
11792.0,0.01000632750058918
11796.0,-0.006423051867692691
11800.0,-0.004594361806916538
11804.0,0.014946972983810345
11808.0,0.038875100383890214
11812.0,0.06721370693588997
11816.0,0.08569085938377811
11820.0,0.12745650416711524
11824.0,0.15966627902159128
11828.0,0.1797235349038202
11832.0,0.20876209787172087
11836.0,0.21812574486887132
11840.0,0.24779470635098308
11844.0,0.24721798664294592
11848.0,0.24535356429712812
11852.0,0.2579622194469701
11856.0,0.2593755104269918
11860.0,0.2640761519137566
11864.0,0.25513239415854394
11868.0,0.2199607495514863
11872.0,0.2109544696491611
11876.0,0.2122450428590709
11880.0,0.18795913384576934
11884.0,0.14221527826337726
11888.0,0.11504623672727896
11892.0,0.0982808991057325
11896.0,0.07319960101513381
11900.0,0.035792539519283725
11904.0,-0.006830870887257031
11908.0,-0.00796904398058024
11912.0,-0.00883759725907837
11916.0,0.00023513107967199678
11920.0,0.006890652002628575
11924.0,0.005791311728312778
11928.0,0.001689555545957902
11932.0,0.004986616454785915
11936.0,0.005569220499930506
11940.0,0.00986517461137411
11944.0,0.014193851142202894
11948.0,-0.030987270364691608
11952.0,-0.07826828452135326
11956.0,-0.12926949335570187
11960.0,-0.18546622122681297
11964.0,-0.010800962692236592
11968.0,0.11200438361227993
11972.0,0.21211415583239332
11976.0,0.3012780456999953
11980.0,0.405586406432523
11984.0,0.5256617193983592
11988.0,0.6436196422079021
11992.0,0.7231695433483464
11996.0,0.8267567006681203
12000.0,0.9478435496964017
12004.0,1.036784315479311
12008.0,0.9374255984678251
12012.0,0.8539031538514651
12016.0,0.7168146274758437
12020.0,0.6183491119775448
12024.0,0.5168850338961785
12028.0,0.4096870050415292
12032.0,0.3080486979766723
12036.0,0.1880514039694465
12040.0,0.11763171441779542
12044.0,0.001071824382455448
12048.0,-0.07404330729515902
12052.0,-0.11215604502510071
12056.0,-0.18224191801409673
12060.0,-0.24344382708928747
12064.0,-0.31357504986629076
12068.0,-0.25334240062131275
12072.0,-0.17520687065248533
12076.0,-0.11870017931137897
12080.0,-0.03906814875811582
12084.0,-0.05359985254367973
12088.0,-0.04965300693782282
12092.0,-0.04938940544390703
12096.0,-0.04125718395667205
12100.0,-0.029980004250605246
12104.0,-0.04034271032702454
12108.0,-0.04765460473048092
12112.0,-0.04123664692195843
12116.0,-0.037363822372852594
12120.0,-0.03421210692077356
12124.0,-0.04382852362104889
12128.0,-0.028799107820871972
12132.0,-0.023515737541628196
12136.0,-0.01678482703206808
12140.0,-0.022449276352719677
12144.0,-0.018802346774198987
12148.0,-0.01929605149590886
12152.0,-0.0016634588679982623
12156.0,0.004680713349580756
12160.0,-0.020212431955683105
12164.0,-0.013857302862643233
12168.0,0.04205510012836541
12172.0,0.030661870174410546
12176.0,0.06801586999788496
12180.0,0.09427052444509353
12184.0,0.14632682109815648
12188.0,0.14502861375903484
12192.0,0.16134651024229665
12196.0,0.17809139349410205
12200.0,0.18614070816600117
12204.0,0.2163776192650073
12208.0,0.2378718979044364
12212.0,0.2518380158103476
12216.0,0.26536988667804223
12220.0,0.2795717665987391
12224.0,0.2869510911185373
12228.0,0.30189540519702723
12232.0,0.30700397723094175
12236.0,0.31683907085198304
12240.0,0.3062368615678965
12244.0,0.30890795855838077
12248.0,0.32982845144090867
12252.0,0.3131920505891499
12256.0,0.3078369183841451
12260.0,0.2912527915378145
12264.0,0.2897575081785673
12268.0,0.3023871629441345
12272.0,0.28508089499001993
12276.0,0.25916794752445266
12280.0,0.23947796063314025
12284.0,0.21645259204075554
12288.0,0.2130961875117933
12292.0,0.18181814002016733
12296.0,0.1326795807065166
12300.0,0.14091339342153397
12304.0,0.13725299279694192
12308.0,0.09551311360139848
12312.0,0.08548348376597756
12316.0,0.043399130262680205
12320.0,0.02574660114163465
12324.0,-0.008049658084772277
12328.0,0.007853301717782472
12332.0,0.001556306827634711
12336.0,-0.01652015902300644
12340.0,0.0006369889792058167
12344.0,0.004195589461680769
12348.0,-0.016442126402827602
12352.0,-0.0039027165601822084
12356.0,-0.003518895946704994
12360.0,-0.023109176420775493
12364.0,0.016271263501110626
12368.0,-0.00018164776958605282
12372.0,0.01369105784221999
12376.0,0.0072140818529517325
12380.0,0.007329120063327561
12384.0,0.01934050649594238
12388.0,-0.004133846752187234
12392.0,0.010505819613537698
12396.0,0.0004461308344571761
12400.0,0.008790782407219531
12404.0,-0.005996520122714883
12408.0,-0.0009874952402103463
12412.0,0.019312125128708543
12416.0,0.004304227630922023
12420.0,-0.007029931298852475
12424.0,-0.01979317192517413
12428.0,0.01783460012904089
12432.0,-0.0017112878668686352
12436.0,-0.0037301453151043725
12440.0,-0.0077847874401860695
12444.0,-0.013879797158233037
12448.0,0.013297755114870309
12452.0,0.011545604793452083
12456.0,-0.01209754852734423
12460.0,0.0004082418802118567
12464.0,0.012770643641387296
12468.0,0.025365282895510655
12472.0,0.009336805589332572
12476.0,0.0015948191969507506
12480.0,0.010478374502529657
12484.0,0.0070037406124252265
12488.0,0.0011853375028772258
12492.0,-0.00022160090477526398
12496.0,0.004574243471618255
12500.0,-0.003744745862999431
12504.0,0.0057951570511325405
12508.0,-0.010733244950381795
12512.0,0.03654626366386332
12516.0,0.06062627277718461
12520.0,0.08765102281084462
12524.0,0.1149648085443378
12528.0,0.15346614825794627
12532.0,0.17586246587014798
12536.0,0.194323862191843
12540.0,0.21638849430640578
12544.0,0.23369596283108304
12548.0,0.2541266000745539
12552.0,0.2467486561873742
12556.0,0.26740295229664074
12560.0,0.2576293781539007
12564.0,0.24803413411607206
12568.0,0.2244660712630749
12572.0,0.21827627917521103
12576.0,0.21101672131177598
12580.0,0.1975894711674358
12584.0,0.1762875532687471
12588.0,0.15506658218631839
12592.0,0.11886394967991497
12596.0,0.08941888454062849
12600.0,0.054347896904210234
12604.0,0.021869779838536108
12608.0,0.004393196815412051
12612.0,-0.0015035621887955683
12616.0,0.0038634832477948554
12620.0,-0.0036205568669711113
12624.0,-0.0019148957463173228
12628.0,-0.013198569703856583
12632.0,0.011765207147739137
12636.0,0.003947632135865297
12640.0,-0.00017484692554987607
12644.0,0.006721386387681897
12648.0,0.009186248527888788
12652.0,-0.044846964187320204
12656.0,-0.08477538642274385
12660.0,-0.12110123501502341
12664.0,-0.1539222755935366
12668.0,-0.012667344751569751
12672.0,0.10980944533367334
12676.0,0.20706140967029052
12680.0,0.31004736739969585
12684.0,0.385798612058991
12688.0,0.4975777311103326
12692.0,0.6002312353993898
12696.0,0.7002230026546552
12700.0,0.8064038457554702
12704.0,0.8987265898224053
12708.0,0.99800675992351
12712.0,0.9055288596899861
12716.0,0.8167163632919334
12720.0,0.7139277325105665
12724.0,0.5841082018509002
12728.0,0.5201233522481586
12732.0,0.4168773167192117
12736.0,0.2981003970372648
12740.0,0.2065581018013318
12744.0,0.11337809379255452
12748.0,0.0062942158024642415
12752.0,-0.04198201135135743
12756.0,-0.10205805450022447
12760.0,-0.1793456059883044
12764.0,-0.23510185725456162
12768.0,-0.2950042772078245
12772.0,-0.23847951987249907
12776.0,-0.17850986045616796
12780.0,-0.11435331787182552
12784.0,-0.07165392514548996
12788.0,-0.05291347619517977
12792.0,-0.040609171626623156
12796.0,-0.05842558897766543
12800.0,-0.041575869329815926
12804.0,-0.06115874525507682
12808.0,-0.0493911242456153
12812.0,-0.047221617951575444
12816.0,-0.036105814466611645
12820.0,-0.04825213048288482
12824.0,-0.01811716916780146
12828.0,-0.013429754781569096
12832.0,-0.028474201503967927
12836.0,-0.025964511405025932
12840.0,-0.014939606165852269
12844.0,-0.027491793511993084
12848.0,-0.011389205954126352
12852.0,0.00036159037922931826
12856.0,-0.022612880427920562
12860.0,-0.0016488581655113585
12864.0,-9.99561769002167e-05
12868.0,-0.013429614405508812
12872.0,0.013151500928671496
12876.0,0.05433817819016418
12880.0,0.06797303743883026
12884.0,0.1132253769543903
12888.0,0.13531815877275374
12892.0,0.13353127519845137
12896.0,0.16427639304134073
12900.0,0.20318822393098104
12904.0,0.20198901104448
12908.0,0.2121519144036929
12912.0,0.22979403714499125
12916.0,0.2349445722122832
12920.0,0.2644062599301792
12924.0,0.2549127146713169
12928.0,0.290613684060194
12932.0,0.29393106499124366
12936.0,0.28671937903832545
12940.0,0.2988786894265806
12944.0,0.2949825567720569
12948.0,0.30028173914943546
12952.0,0.29446797521848894
12956.0,0.2869809573375447
12960.0,0.29789264247598246
12964.0,0.29070049039373913
12968.0,0.2929387916586537
12972.0,0.2754182649787046
12976.0,0.2594060599244945
12980.0,0.24804221995489886
12984.0,0.23223569188266577
12988.0,0.2170405313509694
12992.0,0.20534053169707214
12996.0,0.17996067524322165
13000.0,0.168855869328574
13004.0,0.15469160992519315
13008.0,0.11456186898067473
13012.0,0.10600856262618238
13016.0,0.06395126621985943
13020.0,0.056714951394082856
13024.0,0.004365751607012712
13028.0,-0.009789107912920186
13032.0,-0.010418504371314677
13036.0,-0.006354997854690409
13040.0,0.006108325801505378
13044.0,0.026780763863296114
13048.0,-0.0051173365841529015
13052.0,0.01002302044697283
13056.0,0.007795554555025297
13060.0,-0.010868003264287988
13064.0,-0.004927991655374276
13068.0,0.0014077417738382592
13072.0,0.002751567837157106
13076.0,0.0018515805224452065
13080.0,0.008295208468074402
13084.0,-0.013484312468023712
13088.0,0.001092164304644077
13092.0,0.018331955632534973
13096.0,0.011301379749410145
13100.0,-0.014695537589028456
13104.0,0.01641474422226559
13108.0,-0.017594259252271992
13112.0,0.010878011354666588
13116.0,0.003630713089428375
13120.0,0.004549014974311238
13124.0,0.00590620624165587
13128.0,0.0063400590231540745
13132.0,0.008501496153982487
13136.0,0.01157593008985255
13140.0,-0.0050635107149297285
13144.0,-0.013904240393780704
13148.0,0.009792022040161571
13152.0,-0.004886795454506001
13156.0,-0.008160850784344722
13160.0,0.009429861593359021
13164.0,0.03370572319038705
13168.0,-0.004419391573145479
13172.0,-0.009669415601357475
13176.0,-0.012741730199545854
13180.0,0.011988054310870482
13184.0,0.014497074905002547
13188.0,-0.005193376636443757
13192.0,-0.000462806672096063
13196.0,-0.0027297400424485274
13200.0,-0.013067879430560146
13204.0,-0.013874740185840574
13208.0,-0.00956199079571659
13212.0,-0.0026667871616021617
13216.0,0.03866236243136463
13220.0,0.06925402590388952
13224.0,0.09781229164164341
13228.0,0.11137122149744334
13232.0,0.16726741060874506
13236.0,0.18662938533163728
13240.0,0.19912266832303419
13244.0,0.21297864053349955
13248.0,0.22269414638173973
13252.0,0.21894351680729435
13256.0,0.2450737039743011
13260.0,0.246716344840603
13264.0,0.2472277821081316
13268.0,0.2521219987328977
13272.0,0.233804747436178
13276.0,0.22526838181410025
13280.0,0.22446133403652188
13284.0,0.19703356028846486
13288.0,0.17519082375074574
13292.0,0.14789002672356175
13296.0,0.12454692833601994
13300.0,0.06519927026279698
13304.0,0.054025469772107926
13308.0,0.027335636522012093
13312.0,0.0038136808069139296
13316.0,0.002434314621862199
13320.0,0.001910047525766089
13324.0,0.004091304972527067
13328.0,0.007499972782499563
13332.0,-0.010755689542633076
13336.0,0.008181402364799632
13340.0,-0.004539802819105301
13344.0,-0.007129460124697832
13348.0,0.0011640674975306555
13352.0,-0.0026694702631454357
13356.0,-0.042760923631118095
13360.0,-0.08695618953634732
13364.0,-0.1307996931178205
13368.0,-0.1623385328901386
13372.0,0.001338403867946201
13376.0,0.10388777392242948
13380.0,0.19899276332916704
13384.0,0.28641235433935913
13388.0,0.39758677658206504
13392.0,0.5051949321897832
13396.0,0.6156739078994173
13400.0,0.7189571300639964
13404.0,0.8105211951114745
13408.0,0.9160068006927085
13412.0,1.021770634895886
13416.0,0.896638646404582
13420.0,0.8130208837307149
13424.0,0.6916313396475858
13428.0,0.6136637828718485
13432.0,0.4942853374041417
13436.0,0.3950311463856672
13440.0,0.3077231173502039
13444.0,0.1846866639920942
13448.0,0.09376470579499384
13452.0,-0.008621177905308372
13456.0,-0.048537082682776234
13460.0,-0.12712536989857923
13464.0,-0.1768423601416223
13468.0,-0.23627399872659952
13472.0,-0.30906905845329025
13476.0,-0.24506838021432814
13480.0,-0.18304563116054282
13484.0,-0.12683047768527136
13488.0,-0.04272825320170001
13492.0,-0.05039719164805864
13496.0,-0.034345017855403996
13500.0,-0.058354310658539445
13504.0,-0.05366660045027538
13508.0,-0.03279204415759051
13512.0,-0.040026669871519274
13516.0,-0.05043953966121875
13520.0,-0.03922239307354799
13524.0,-0.021034287629879515
13528.0,-0.0351163100702904
13532.0,-0.019325995905201947
13536.0,-0.001970989479265276
13540.0,-0.029923839883695437
13544.0,-0.017560230479775757
13548.0,-0.012047214031859349
13552.0,-0.019080189351158315
13556.0,-0.005527561634806226
13560.0,-0.027932084111290018
13564.0,-0.03402243107543842
13568.0,-0.01695852469275025
13572.0,-0.014187125654409851
13576.0,0.029160194775294766
13580.0,0.04167494595611192
13584.0,0.08858322121930326
13588.0,0.10837862002768142
13592.0,0.10897393658731303
13596.0,0.14171432034021725
13600.0,0.16916249525852742
13604.0,0.17508554941486681
13608.0,0.1873455289532266
13612.0,0.19667235393377733
13616.0,0.22666727225927208
13620.0,0.24277066256202584
13624.0,0.25270805687475695
13628.0,0.2713927985635494
13632.0,0.28343651889057364
13636.0,0.31299835670235926
13640.0,0.29435176688353537
13644.0,0.29065006163914037
13648.0,0.3013057285077008
13652.0,0.3072257304456826
13656.0,0.2834533429047361
13660.0,0.29836598105432244
13664.0,0.3029207783120399
13668.0,0.29558550131209543
13672.0,0.2831609822103774
13676.0,0.26501940489387454
13680.0,0.25972382376006137
13684.0,0.2452430721897463
13688.0,0.2472623477480496
13692.0,0.212508585760491
13696.0,0.1901456518664578
13700.0,0.16086132308267484
13704.0,0.1651541290373787
13708.0,0.14571394278320277
13712.0,0.11966028135022408
13716.0,0.10237038143609509
13720.0,0.08156541503094265
13724.0,0.04115299700073698
13728.0,0.01952579814189686
13732.0,-0.010477404133436759
13736.0,-0.010967834914236007
13740.0,-0.0008517011125176549
13744.0,0.007309080283223156
13748.0,0.003041779257933498
13752.0,-0.006518058137048433
13756.0,0.002681849769381031
13760.0,0.009809959265993855
13764.0,-0.01601737879175373
13768.0,-0.007766156208311298
13772.0,0.00043325000769571943
13776.0,0.007965768042835822
13780.0,0.005783578116851496
13784.0,-0.002282424353044913
13788.0,-0.025376880470305584
13792.0,-0.018938420172784236
13796.0,0.013513759163581112
13800.0,0.01603342090216363
13804.0,-0.0008811808236401775
13808.0,-0.0006783481303946473
13812.0,0.01615170296219026
13816.0,-0.03077371939196797
13820.0,0.0038681135747270475
13824.0,-0.011545403164820611
13828.0,0.011963708650729826
13832.0,0.0008906639289717808
13836.0,0.008490617911051943
13840.0,-0.017451487694532655
13844.0,0.015185417964092889
13848.0,0.00032528504616515885
13852.0,0.01137342299349349
13856.0,0.02099566918167401
13860.0,-0.010401131141746482
13864.0,0.012799701016938685
13868.0,-0.015269636497844066
13872.0,0.005952461509412933
13876.0,-0.004796942158825956
13880.0,0.008593227852679197
13884.0,0.002826792771648749
13888.0,-0.001831685034274515
13892.0,0.019971548541667758
13896.0,0.0036637702007376338
13900.0,0.019022548023476412
13904.0,-0.0011587100033769917
13908.0,-0.0043525161725766395
13912.0,0.00643094216002354
13916.0,0.023076185992115278
13920.0,0.04463151809568139
13924.0,0.0579426211953171
13928.0,0.0840024694796292
13932.0,0.1232273962058233
13936.0,0.13857599554661484
13940.0,0.1533323925857584
13944.0,0.1871729281616502
13948.0,0.2008276123467652
13952.0,0.21522985243465942
13956.0,0.23816408685051993
13960.0,0.24245138664097002
13964.0,0.2379105602967323
13968.0,0.23370959113029574
13972.0,0.24494275760750522
13976.0,0.21565408541263412
13980.0,0.22849486384921505
13984.0,0.2057631400936037
13988.0,0.18130900021786686
13992.0,0.18322590392757665
13996.0,0.1405828270731039
14000.0,0.10735837624761531
14004.0,0.09771365384963508
14008.0,0.06231868297402247
14012.0,0.03524216511137676
14016.0,0.0018505627839452488
14020.0,0.021528852757290513
14024.0,-0.013458772378199667
14028.0,-0.01406258320473436
14032.0,-0.0015974183126755935
14036.0,-0.01767562396285879
14040.0,0.007470922758101282
14044.0,0.0003463697628664665
14048.0,0.0022602584564665553
14052.0,0.0037086357905089695
14056.0,0.0013076514442460791
14060.0,-0.027878724325903832
14064.0,-0.07726736892238159
14068.0,-0.12751555885451715
14072.0,-0.15696291453354594
14076.0,0.002617118425610144
14080.0,0.1205954414512316
14084.0,0.18769053752022777
14088.0,0.297998653354483
14092.0,0.39023794201817924
14096.0,0.5057047711777641
14100.0,0.5890117446650096
14104.0,0.68768818871614
14108.0,0.7983283590328609
14112.0,0.8953014927993802
14116.0,0.9796674447021919
14120.0,0.9000826099660927
14124.0,0.8105437765122337
14128.0,0.6934705125619048
14132.0,0.6044198916967978
14136.0,0.4890100690424692
14140.0,0.39119168202633675
14144.0,0.2771609932393041
14148.0,0.19797255456835022
14152.0,0.10067773962456887
14156.0,0.000548792545076574
14160.0,-0.038390671104294734
14164.0,-0.12387260613764896
14168.0,-0.17636148444483435
14172.0,-0.24033744260829376
14176.0,-0.28422083166417117
14180.0,-0.2423060129797104
14184.0,-0.18390725863053536
14188.0,-0.12219472307094344
14192.0,-0.05353549345704779
14196.0,-0.06191957423001835
14200.0,-0.03707541642490987
14204.0,-0.05454504384434783
14208.0,-0.04538580161148858
14212.0,-0.04701602439897516
14216.0,-0.04019686598774806
14220.0,-0.028379885555147137
14224.0,-0.017322549801611048
14228.0,-0.02866859371839566
14232.0,-0.019005772967668262
14236.0,-0.033970346902154905
14240.0,-0.025107704108259833
14244.0,-0.00962490495776085
14248.0,-0.011583634014995306
14252.0,-0.008990304821467412
14256.0,0.0042328394128551255
14260.0,-0.014528542923392791
14264.0,-0.0038061256040112044
14268.0,-0.012351645590256182
14272.0,-0.04347350193160449
14276.0,0.003991955654124339
14280.0,0.014511798429572544
14284.0,0.03717746956879628
14288.0,0.06944442705384231
14292.0,0.07722424353494195
14296.0,0.12070625383674209
14300.0,0.13527794845300223
14304.0,0.13648049013739
14308.0,0.1734452359402241
14312.0,0.21750602348519674
14316.0,0.2084219563808316
14320.0,0.24955636898655892
14324.0,0.24642975563492497
14328.0,0.2370473924714786
14332.0,0.27759185983545903
14336.0,0.277739495017868
14340.0,0.27789870662706356
14344.0,0.29359406864230136
14348.0,0.29368261795258316
14352.0,0.29665507529218144
14356.0,0.2905233377560326
14360.0,0.28815921207450784
14364.0,0.30104343102390774
14368.0,0.2894880252274953
14372.0,0.276989228373333
14376.0,0.27807311355288833
14380.0,0.2587194729650944
14384.0,0.27081881176999284
14388.0,0.25167853034007104
14392.0,0.22458008724458267
14396.0,0.21111505478281925
14400.0,0.1884782212247985
14404.0,0.17016438273765458
14408.0,0.14832365882541693
14412.0,0.11635308113283413
14416.0,0.126120810227265
14420.0,0.0798731164928645
14424.0,0.06559336055177495
14428.0,0.04170768705702917
14432.0,0.015066506036109812
14436.0,-0.0050398841456965725
14440.0,-0.00020456159388709558
14444.0,0.014064428313622757
14448.0,0.008246159406176068
14452.0,-0.006090149006029462
14456.0,-0.009415089075441823
14460.0,0.010346349895359177
14464.0,-0.002136965398262894
14468.0,-0.007146126256230512
14472.0,0.007090705685338911
14476.0,-0.003121252171442388
14480.0,-0.008382881837575778
14484.0,0.0006532464423294687
14488.0,0.013243265067433766
14492.0,-0.015722661021086326
14496.0,0.008355654627602816
14500.0,-0.01107624592467976
14504.0,0.006718114061375805
14508.0,-0.011375090338427358
14512.0,0.004121665176326873
14516.0,-0.003092311128478774
14520.0,0.0018241954508633879
14524.0,0.011488627439989912
14528.0,-0.023041362811089653
14532.0,0.0030830524957448234
14536.0,-0.005051380737101912
14540.0,0.0023331797234658466
14544.0,-0.009898067451268476
14548.0,-0.005955699748318335
14552.0,-0.00976536377389574
14556.0,0.0082074018388015
14560.0,0.003604947762639643
14564.0,-0.0024864520337709757
14568.0,0.002002907339440206
14572.0,-0.013485744710025366
14576.0,-0.0006619896698643632
14580.0,0.0018730354980616333
14584.0,-0.007976204535608695
14588.0,-0.00260125969228515
14592.0,-0.0040237961537895415
14596.0,-0.01436323318091528
14600.0,-0.014841938028136555
14604.0,-0.002774883527602709
14608.0,0.002565984764286584
14612.0,0.0074948180972577985
14616.0,0.026355704108038704
14620.0,0.009920625526166153
14624.0,0.01666069147111921
14628.0,0.05522397146637048
14632.0,0.09709938175119084
14636.0,0.12986703348788786
14640.0,0.1460678687338961
14644.0,0.1691100602456222
14648.0,0.2185018991134304
14652.0,0.228364427819269
14656.0,0.25264884913308255
14660.0,0.2303416808398885
14664.0,0.24168360237036504
14668.0,0.2535599248962167
14672.0,0.2653961181486952
14676.0,0.2518106296359426
14680.0,0.23987078630091982
14684.0,0.22850383413709716
14688.0,0.22447624040594896
14692.0,0.18489796254573349
14696.0,0.1782853770084659
14700.0,0.15155841579223236
14704.0,0.1257051807336173
14708.0,0.09764224897052191
14712.0,0.07743419057157343
14716.0,0.043870226358192044
14720.0,-0.00806238889697299
14724.0,-0.011241965816633667
14728.0,0.01943101057664349
14732.0,0.002756824949304168
14736.0,-0.0064351735670382295
14740.0,0.0027612804759141415
14744.0,-0.014140752279224872
14748.0,-0.004612535002855723
14752.0,0.009479142109066141
14756.0,0.003463978231508264
14760.0,-0.0057901814457453436
14764.0,-0.04968005445506981
14768.0,-0.08438794679228127
14772.0,-0.10716024607944039
14776.0,-0.143961808242478
14780.0,-0.0014757877877536007
14784.0,0.09751824171358646
14788.0,0.21129206529223585
14792.0,0.3186538939864594
14796.0,0.40202324175198395
14800.0,0.5135974444206612
14804.0,0.6105345571150442
14808.0,0.7130755316402191
14812.0,0.8156537922812459
14816.0,0.9119462071616868
14820.0,1.014480376139663
14824.0,0.9038840301680515
14828.0,0.8159258703702672
14832.0,0.709552285128557
14836.0,0.6118602830867489
14840.0,0.523194211038601
14844.0,0.40553324114124706
14848.0,0.29896979225325876
14852.0,0.21766655665063545
14856.0,0.11083298204751164
14860.0,0.0017767371193985937
14864.0,-0.04344851054521616
14868.0,-0.1256625898070534
14872.0,-0.17375226364270946
14876.0,-0.2633974207473583
14880.0,-0.3119275255443612
14884.0,-0.26494482067907626
14888.0,-0.1976931034173337
14892.0,-0.10858402435102243
14896.0,-0.049125759863176424
14900.0,-0.05731339224348036
14904.0,-0.07482837520163575
14908.0,-0.048141150553964424
14912.0,-0.05865641172337454
14916.0,-0.051205431712154865
14920.0,-0.03826724821379988
14924.0,-0.015716930875993483
14928.0,-0.040919721863687496
14932.0,-0.024793912305085857
14936.0,-0.03715578386549041
14940.0,-0.02993161893762836
14944.0,-0.009908110058874238
14948.0,-0.0014315097538027607
14952.0,-0.023455930230884162
14956.0,-0.021048554001934467
14960.0,-0.006019276180699726
14964.0,-0.02188385711400702
14968.0,9.378614875631304e-05
14972.0,0.0016202398902889293
14976.0,-0.0011945157447084583
14980.0,-0.007547891058971004
14984.0,0.021221652160361804
14988.0,0.0388681949486125
14992.0,0.07517195584341119
14996.0,0.10473486726040238
15000.0,0.10973400391749458
15004.0,0.13420851188142113
15008.0,0.1584750729427104
15012.0,0.16516267736748086
15016.0,0.19690663772823971
15020.0,0.21396835279579737
15024.0,0.23432328236127375
15028.0,0.2508395947378384
15032.0,0.26394359610817064
15036.0,0.2733933415920221
15040.0,0.3008527833613453
15044.0,0.29669143022529615
15048.0,0.312769998284666
15052.0,0.29458560986928395
15056.0,0.3140506044604976
15060.0,0.3029748884867793
15064.0,0.2917362145716739
15068.0,0.30473385754233673
15072.0,0.305499435166496
15076.0,0.28466633941128394
15080.0,0.29152885616520813
15084.0,0.285337290900289
15088.0,0.25586336701485307
15092.0,0.24718071859926635
15096.0,0.22642458458283246
15100.0,0.216869140020097
15104.0,0.20166005289015032
15108.0,0.1798354841564434
15112.0,0.1615747428925039
15116.0,0.13433517251668392
15120.0,0.13003037209197824
15124.0,0.09635940510552071
15128.0,0.0810032211932007
15132.0,0.03633562939381658
15136.0,0.01680571001248151
15140.0,0.008620056394092043
15144.0,-0.017942265966987316
15148.0,-0.00902159402642509
15152.0,-0.010546233443658331
15156.0,0.012990171597174803
15160.0,-0.0031670411828082935
15164.0,-0.005542290829321851
15168.0,0.012306042130704672
15172.0,-0.011975047818241408
15176.0,0.00815797431503161
15180.0,0.010327177439926727
15184.0,0.0036511716947304554
15188.0,-0.010386706838152147
15192.0,-0.0025045721531793625
15196.0,0.010776130679731958
15200.0,0.003225873640245734
15204.0,0.0039028807553425295
15208.0,0.013459520002488146
15212.0,-0.004012406757445849
15216.0,0.017523518270231166
15220.0,0.00013512270306971922
15224.0,-0.004432779031580184
15228.0,-0.0008376736961585561
15232.0,-0.002142435853034323
15236.0,0.01033750748380318
15240.0,0.0025743758903828636
15244.0,0.009107770463326312
15248.0,0.013786066222722878
15252.0,0.006219174310442744
15256.0,0.01681630528597141
15260.0,-0.011514941115132118
15264.0,-0.006155453294510011
15268.0,0.006339975230478646
15272.0,-0.006342486751318398
15276.0,0.007031686232965936
15280.0,0.0005517440321172155
15284.0,0.004676049512267004
15288.0,-0.007567281440826575
15292.0,0.007803473769831989
15296.0,-0.005424949667727852
15300.0,-0.0058715069823437
15304.0,0.016580534919533204
15308.0,-0.009328294174822874
15312.0,0.0019544233599658135
15316.0,0.0035828645189712434
15320.0,0.016307045423908352
15324.0,-0.016138446327099102
15328.0,0.025676262801823762
15332.0,0.07437567251223946
15336.0,0.10440441150570078
15340.0,0.12586888426651255
15344.0,0.15780726057428998
15348.0,0.18941869807737763
15352.0,0.2073554455072793
15356.0,0.22577898227080345
15360.0,0.23156862528428518
15364.0,0.2583196950658061
15368.0,0.2631535418566872
15372.0,0.271323869780249
15376.0,0.26007671339606564
15380.0,0.25264825962024146
15384.0,0.2360716392558913
15388.0,0.2396493671785907
15392.0,0.21195842843632506
15396.0,0.20045692575903684
15400.0,0.19411604008195757
15404.0,0.1512586651192754
15408.0,0.12856952780667838
15412.0,0.08303544786514296
15416.0,0.06972526902636061
15420.0,0.02439385356413387
15424.0,0.013722157518219154
15428.0,-0.01395136007576844
15432.0,0.007928740235949019
15436.0,0.008698641683036551
15440.0,0.002895439556490437
15444.0,0.02480984947329001
15448.0,4.057223652025988e-05
15452.0,-0.00401761162692201
15456.0,-0.008543536395585218
15460.0,0.0016090264818484673
15464.0,-0.0036266853510557727
15468.0,-0.030742788006917578
15472.0,-0.07150293872341776
15476.0,-0.1306959845525202
15480.0,-0.1622363440694202
15484.0,0.015896039754419583
15488.0,0.11006650245281198
15492.0,0.22340772742025644
15496.0,0.3180765758919379
15500.0,0.41761849677297397
15504.0,0.5280689213696411
15508.0,0.6281153178248392
15512.0,0.7277899924656577
15516.0,0.8367547175720919
15520.0,0.9449196630418856
15524.0,1.0390978074176394
15528.0,0.9500039826498576
15532.0,0.8372961062938671
15536.0,0.7401865988266223
15540.0,0.6240002229662011
15544.0,0.5204038417728358
15548.0,0.41582582261287715
15552.0,0.3309755858042256
15556.0,0.1956103513324821
15560.0,0.11033756917075825
15564.0,0.005309171188913193
15568.0,-0.05507030672249899
15572.0,-0.12081326125309456
15576.0,-0.19516166500407917
15580.0,-0.24900975666221922
15584.0,-0.31330094727117425
15588.0,-0.24685604400344788
15592.0,-0.17146165193614665
15596.0,-0.12141337329344842
15600.0,-0.05865156200846185
15604.0,-0.03486072718241223
15608.0,-0.038969220905995874
15612.0,-0.03271561456941313
15616.0,-0.04531568772244558
15620.0,-0.046533430806990496
15624.0,-0.03778040689617196
15628.0,-0.028679560405539185
15632.0,-0.02495903837513502
15636.0,-0.04044613961346681
15640.0,-0.04048782504483748
15644.0,-0.025034124604094158
15648.0,-0.018853360294794848
15652.0,-0.0030591475333087807
15656.0,-0.004925804095612123
15660.0,-0.02468558524326841
15664.0,0.00465036909309036
15668.0,0.01666728351972656
15672.0,0.007295241026042197
15676.0,-0.003412802469693469
15680.0,0.004805445393859905
15684.0,-0.0011271745590204342
15688.0,0.0337819533883389
15692.0,0.050510053036784755
15696.0,0.08039851589496125
15700.0,0.1171942779508374
15704.0,0.10699980428260929
15708.0,0.1465390177374653
15712.0,0.15593906381188716
15716.0,0.17183722564777412
15720.0,0.1886653429226534
15724.0,0.21671065932800326
15728.0,0.2472294822749889
15732.0,0.24238217962226977
15736.0,0.2772488554365038
15740.0,0.2805166561746158
15744.0,0.286727799569115
15748.0,0.29583732630773557
15752.0,0.3013503043606953
15756.0,0.30246610720647243
15760.0,0.30424365466240116
15764.0,0.30556243958497686
15768.0,0.30917610637963644
15772.0,0.3021544107195192
15776.0,0.30141269868177845
15780.0,0.29811654253559894
15784.0,0.2953073971369466
15788.0,0.2635855976606828
15792.0,0.2644259490235268
15796.0,0.2460371014297651
15800.0,0.2355056257013523
15804.0,0.22686480526560293
15808.0,0.199459671783316
15812.0,0.19704826704156267
15816.0,0.14743240204698332
15820.0,0.14648228684384648
15824.0,0.12769133128301083
15828.0,0.09288287254835265
15832.0,0.06315165089863686
15836.0,0.04757215753759501
15840.0,-0.007984978548522075
15844.0,-0.006635918537505681
15848.0,-0.004556704299983425
15852.0,-0.0017012186354575817
15856.0,0.00040139838338031856
15860.0,0.01612185495638009
15864.0,-0.00378038711000716
15868.0,0.008061114672630444
15872.0,0.00018400880417636728
15876.0,0.01618289563211289
15880.0,-0.006027744967837794
15884.0,0.0008804563467713403
15888.0,-0.0014568697329277267
15892.0,-0.010473217994794722
15896.0,0.00033822498609694296
15900.0,0.02112348150802905
15904.0,-0.003466470617739698
15908.0,-0.003802423562037441
15912.0,0.005443139760991046
15916.0,-0.008438587965864103
15920.0,0.008793430200847474
15924.0,-0.026556499144208087
15928.0,0.022388994819971888
15932.0,-0.01862552155846668
15936.0,0.002599108581848457
15940.0,0.0005488307717174492
15944.0,0.014115171877524504
15948.0,0.003574438835423456
15952.0,0.009556466998360233
15956.0,-0.012289440770017304
15960.0,0.00039374741848496593
15964.0,-0.004875393131950321
15968.0,0.00786215408032918
15972.0,0.00048023592641716734
15976.0,-0.006896584917364934
15980.0,-0.01880023863878086
15984.0,-0.0005407408366097987
15988.0,-0.007386907743753484
15992.0,0.005843553547579947
15996.0,-0.0009002593907567204
16000.0,0.010670865004234007
16004.0,0.012541887444390387
16008.0,0.014228663836534055
16012.0,0.004213149775811218
16016.0,-0.0055859609984897085
16020.0,-0.0003960950102847137
16024.0,0.0005922088216275663
16028.0,-0.0008077877999420167
16032.0,0.029930918661979725
16036.0,0.05915800355444089
16040.0,0.10756495370877861
16044.0,0.10373637550387646
16048.0,0.13997649195788212
16052.0,0.18858635208072116
16056.0,0.18274168335642332
16060.0,0.1976538179725666
16064.0,0.19921119422404163
16068.0,0.23969117781521268
16072.0,0.2198648100740012
16076.0,0.24804420866033952
16080.0,0.23034795564252375
16084.0,0.2547190976013597
16088.0,0.23130664109101176
16092.0,0.21187708614135772
16096.0,0.19647463124015188
16100.0,0.20463275766854647
16104.0,0.15290565006219592
16108.0,0.13426629143165256
16112.0,0.13970433882243263
16116.0,0.08191978345164869
16120.0,0.04660290283811387
16124.0,0.0349253728323041
16128.0,-0.010169890048141011
16132.0,-0.0078091460510338485
16136.0,0.003060722276845192
16140.0,-0.001542903291498509
16144.0,-0.01219319851212645
16148.0,-0.008361581554707117
16152.0,-0.006897581774624291
16156.0,-0.013905129486716452
16160.0,-0.006586943612653701
16164.0,0.017096067423600227
16168.0,-0.007608814844317341
16172.0,-0.03483651189452011
16176.0,-0.08548716696021749
16180.0,-0.1435030459224523
16184.0,-0.14984798886508147
16188.0,0.004584838846111011
16192.0,0.07853604978849446
16196.0,0.2070382470653426
16200.0,0.2981938353568113
16204.0,0.3958699143176156
16208.0,0.4814735923247119
16212.0,0.5729429943321512
16216.0,0.6924290928463154
16220.0,0.7654320834778937
16224.0,0.8600428673369921
16228.0,0.9412348577186848
16232.0,0.8693092195876673
16236.0,0.7646935446941784
16240.0,0.6765613590306104
16244.0,0.5863237146705574
16248.0,0.48100753001886715
16252.0,0.36912450324598967
16256.0,0.2889965583610007
16260.0,0.204628439022268
16264.0,0.08369347115056588
16268.0,0.0023173644319420096
16272.0,-0.06864187317416615
16276.0,-0.10777118517319452
16280.0,-0.17756621403488995
16284.0,-0.2274017661327093
16288.0,-0.30559441158194245
16292.0,-0.23418511725269234
16296.0,-0.19685018974105034
16300.0,-0.12805382334308527
16304.0,-0.04822458005855336
16308.0,-0.04872777279638009
16312.0,-0.04901799523408107
16316.0,-0.02982824141735768
16320.0,-0.04321512488125386
16324.0,-0.05519147939567834
16328.0,-0.012580280008378197
16332.0,-0.02762057526643592
16336.0,-0.03014657244832859
16340.0,-0.024727504851443413
16344.0,-0.018043228497816116
16348.0,-0.022357459489292693
16352.0,-0.029053603058823877
16356.0,-0.020946236746531396
16360.0,-0.031328200646930315
16364.0,-0.01085823112382665
16368.0,-0.021929211825689673
16372.0,-0.003997117739165255
16376.0,-0.006256776979020924
16380.0,-0.018104749506513522
16384.0,-0.006710463038627785
16388.0,0.004256259965248398
16392.0,0.015395976122464638
16396.0,0.053703790333530795
16400.0,0.06931507738067848
16404.0,0.08603242422501323
16408.0,0.11896792502406596
16412.0,0.1181387219912278
16416.0,0.15056039320471312
16420.0,0.1787544025967301
16424.0,0.17292594285631493
16428.0,0.19745836966701721
16432.0,0.2134217689899767
16436.0,0.23659044357472267
16440.0,0.25880724546926187
16444.0,0.2615370048602711
16448.0,0.2522858150548036
16452.0,0.2793199242456532
16456.0,0.28833750331410385
16460.0,0.27325755784523226
16464.0,0.2899638911389811
16468.0,0.2836561135354517
16472.0,0.28097585268115705
16476.0,0.2764469807046705
16480.0,0.27967625416510583
16484.0,0.2849279721621245
16488.0,0.2538036123828443
16492.0,0.26493743583927976
16496.0,0.23789010079638043
16500.0,0.21533943754614485
16504.0,0.2314070103720819
16508.0,0.19426793020419797
16512.0,0.1884888939895038
16516.0,0.16822338503733741
16520.0,0.15535636691204052
16524.0,0.15944772394702472
16528.0,0.09875681533768274
16532.0,0.10185374675663297
16536.0,0.06756664191642087
16540.0,0.04688864693331464
16544.0,0.02018558000544873
16548.0,-0.01628320815838928
16552.0,0.00013653678095475633
16556.0,0.001442849659227183
16560.0,0.00020923584915855974
16564.0,0.0022826967238568784
16568.0,-0.008455328731121101
16572.0,0.010283820782628277
16576.0,0.007183540686401225
16580.0,0.0038599022465557772
16584.0,0.004849253684182488
16588.0,0.01510597328762574
16592.0,0.005503103107158027
16596.0,0.015315218740616747
16600.0,0.019004397543964525
16604.0,0.0004353757651617651
16608.0,-0.002815309434581444
16612.0,-0.01683173200995259
16616.0,0.0049767253679881135
16620.0,-0.0020688890064527285
16624.0,-0.00016344995269266337
16628.0,-0.002220597490011242
16632.0,-0.0007939678397029204
16636.0,-0.008649019865417471
16640.0,-0.00016828064322491822
16644.0,-0.010612279308865569
16648.0,-0.011124864266077419
16652.0,-0.003484970753634204
16656.0,-0.011012787390334346
16660.0,-0.017041144522925315
16664.0,-0.009387162352793237
16668.0,0.015826725063544746
16672.0,0.011925819804171787
16676.0,0.005476049180721594
16680.0,0.0030721500705585846
16684.0,0.0072048227126014965
16688.0,-0.004971425846525387
16692.0,-0.004471283760309011
16696.0,-0.019654944382283532
16700.0,-0.009054757845999802
16704.0,-0.004830390162892458
16708.0,0.0076984727142222625
16712.0,-0.009830787586901285
16716.0,-0.002100248408006442
16720.0,-0.002235609193110243
16724.0,0.00032141287385927485
16728.0,-0.013160657536841399
16732.0,-0.013071646759303364
16736.0,0.02938273397875675
16740.0,0.07004675865806317
16744.0,0.09741140925577775
16748.0,0.11154836412188705
16752.0,0.1409614858830385
16756.0,0.1560676889173957
16760.0,0.18853795179129187
16764.0,0.19234736517283793
16768.0,0.21540928001943188
16772.0,0.2288853754644153
16776.0,0.24520972814655465
16780.0,0.24954981809367283
16784.0,0.23806548848189138
16788.0,0.2631190659353218
16792.0,0.2387517336056066
16796.0,0.21783803885950342
16800.0,0.20253366246338403
16804.0,0.20176961458851106
16808.0,0.15778565935768918
16812.0,0.13531401385381317
16816.0,0.12302790179019059
16820.0,0.10115916892818574
16824.0,0.07681737461521537
16828.0,0.014727525200071208
16832.0,0.012971043625572595
16836.0,-0.012731013486909436
16840.0,-0.015005514126284215
16844.0,0.001375388462078763
16848.0,-0.01055666688391421
16852.0,0.008003018577464919
16856.0,0.0010359902034820772
16860.0,-0.010511412486382002
16864.0,0.008411653385281359
16868.0,-0.00012785057793372214
16872.0,0.010988953953086434
16876.0,-0.047143592619742575
16880.0,-0.07702214082611235
16884.0,-0.1247414203178972
16888.0,-0.16725293174306216
16892.0,0.011440132751237841
16896.0,0.089851638646586
16900.0,0.19503588124171042
16904.0,0.29871042018076965
16908.0,0.3981510720671835
16912.0,0.4784483541536557
16916.0,0.5815245143074851
16920.0,0.6870573630890582
16924.0,0.8071431550193441
16928.0,0.8786077837265794
16932.0,0.9845556774577061
16936.0,0.8888669555660991
16940.0,0.7936764108571411
16944.0,0.7018000408812293
16948.0,0.5904266797298947
16952.0,0.5058625100988418
16956.0,0.3832756055889816
16960.0,0.29886801561344983
16964.0,0.19762160453465166
16968.0,0.08625114060869321
16972.0,-0.00016228291989497397
16976.0,-0.04951570394259184
16980.0,-0.10801999972342184
16984.0,-0.1938188340315719
16988.0,-0.23696101707298717
16992.0,-0.28697157879477214
16996.0,-0.22607961280173844
17000.0,-0.17255333371274356
17004.0,-0.13965131502624786
17008.0,-0.0440005565165502
17012.0,-0.06711760705120057
17016.0,-0.03824368437301032
17020.0,-0.03303087001720531
17024.0,-0.04381470143859666
17028.0,-0.04091851068547713
17032.0,-0.015563029460138319
17036.0,-0.04379206216912577
17040.0,-0.03976579687267759
17044.0,-0.02257655084132401
17048.0,-0.027698259303409373
17052.0,-0.032230048009767184
17056.0,-0.0047250000239626826
17060.0,-0.006127205546155829
17064.0,-0.019996595232332205
17068.0,-0.02385322985600632
17072.0,-0.02478521019442029
17076.0,-0.00919779098020966
17080.0,0.012596755141469306
17084.0,0.008627929088749133
17088.0,0.0073740572957429334
17092.0,-0.005112946728511816
17096.0,0.03351690607533585
17100.0,0.03768389183623083
17104.0,0.06376822046894365
17108.0,0.09512910188744478
17112.0,0.12336947510667456
17116.0,0.14776282959025824
17120.0,0.13651989802586134
17124.0,0.165641467849858
17128.0,0.1926179679847625
17132.0,0.21186069332311835
17136.0,0.2251207977997503
